3996.46631	-0.00000
3994.53751	0.00067
3992.60871	0.00106
3990.67992	0.00094
3988.75112	0.00087
3986.82232	0.00101
3984.89353	0.00133
3982.96473	0.00174
3981.03594	0.00222
3979.10714	0.00264
3977.17834	0.00271
3975.24955	0.00273
3973.32075	0.00292
3971.39195	0.00302
3969.46316	0.00303
3967.53436	0.00328
3965.60556	0.00355
3963.67677	0.00336
3961.74797	0.00360
3959.81917	0.00465
3957.89038	0.00528
3955.96158	0.00544
3954.03278	0.00563
3952.10399	0.00545
3950.17519	0.00471
3948.24640	0.00469
3946.31760	0.00578
3944.38880	0.00610
3942.46001	0.00645
3940.53121	0.00784
3938.60241	0.00834
3936.67362	0.00769
3934.74482	0.00600
3932.81602	0.00467
3930.88723	0.00635
3928.95843	0.00891
3927.02963	0.00910
3925.10084	0.00869
3923.17204	0.01007
3921.24324	0.01046
3919.31445	0.00871
3917.38565	0.00804
3915.45686	0.01003
3913.52806	0.01144
3911.59926	0.01094
3909.67047	0.01069
3907.74167	0.01002
3905.81287	0.00784
3903.88408	0.00745
3901.95528	0.00995
3900.02648	0.01180
3898.09769	0.01332
3896.16889	0.01363
3894.24009	0.01052
3892.31130	0.00745
3890.38250	0.00985
3888.45370	0.01177
3886.52491	0.00875
3884.59611	0.00939
3882.66731	0.01101
3880.73852	0.00985
3878.80972	0.01180
3876.88093	0.01265
3874.95213	0.01013
3873.02333	0.00931
3871.09454	0.00829
3869.16574	0.01038
3867.23694	0.01330
3865.30815	0.01075
3863.37935	0.00978
3861.45055	0.01246
3859.52176	0.01485
3857.59296	0.01385
3855.66416	0.00669
3853.73537	0.00302
3851.80657	0.01216
3849.87777	0.01897
3847.94898	0.01658
3846.02018	0.01200
3844.09139	0.00988
3842.16259	0.01052
3840.23379	0.01009
3838.30500	0.00961
3836.37620	0.01282
3834.44740	0.01507
3832.51861	0.01363
3830.58981	0.01288
3828.66101	0.01282
3826.73222	0.01311
3824.80342	0.01380
3822.87462	0.01027
3820.94583	0.00992
3819.01703	0.01517
3817.08823	0.01374
3815.15944	0.01308
3813.23064	0.01734
3811.30185	0.01806
3809.37305	0.01414
3807.44425	0.01149
3805.51546	0.01488
3803.58666	0.01462
3801.65786	0.01134
3799.72907	0.01576
3797.80027	0.01881
3795.87147	0.01811
3793.94268	0.01867
3792.01388	0.01820
3790.08508	0.01697
3788.15629	0.01624
3786.22749	0.01602
3784.29869	0.01736
3782.36990	0.01843
3780.44110	0.01702
3778.51230	0.01708
3776.58351	0.01877
3774.65471	0.01855
3772.72592	0.01629
3770.79712	0.01360
3768.86832	0.01421
3766.93953	0.01548
3765.01073	0.01588
3763.08193	0.01592
3761.15314	0.01255
3759.22434	0.01048
3757.29554	0.01328
3755.36675	0.01439
3753.43795	0.00868
3751.50915	0.00302
3749.58036	0.00695
3747.65156	0.01173
3745.72276	0.00597
3743.79397	0.00432
3741.86517	0.01279
3739.93638	0.01559
3738.00758	0.01204
3736.07878	0.00979
3734.14999	0.01243
3732.22119	0.01627
3730.29239	0.01933
3728.36360	0.01868
3726.43480	0.01600
3724.50600	0.01598
3722.57721	0.01678
3720.64841	0.01691
3718.71961	0.01681
3716.79082	0.01690
3714.86202	0.01519
3712.93322	0.01214
3711.00443	0.01412
3709.07563	0.02028
3707.14684	0.02351
3705.21804	0.02206
3703.28924	0.01830
3701.36045	0.01743
3699.43165	0.01946
3697.50285	0.01985
3695.57406	0.01954
3693.64526	0.01878
3691.71646	0.01541
3689.78767	0.01211
3687.85887	0.01424
3685.93007	0.01836
3684.00128	0.01826
3682.07248	0.01631
3680.14368	0.01585
3678.21489	0.01365
3676.28609	0.01020
3674.35730	0.01565
3672.42850	0.01951
3670.49970	0.01524
3668.57091	0.01726
3666.64211	0.02166
3664.71331	0.02081
3662.78452	0.01873
3660.85572	0.01801
3658.92692	0.01616
3656.99813	0.01408
3655.06933	0.01733
3653.14053	0.01905
3651.21174	0.01309
3649.28294	0.01024
3647.35414	0.01509
3645.42535	0.01838
3643.49655	0.01633
3641.56775	0.01340
3639.63896	0.01265
3637.71016	0.01280
3635.78137	0.01313
3633.85257	0.01479
3631.92377	0.01468
3629.99498	0.00954
3628.06618	0.01044
3626.13738	0.01723
3624.20859	0.01859
3622.27979	0.01433
3620.35099	0.00945
3618.42220	0.00945
3616.49340	0.01194
3614.56460	0.01090
3612.63581	0.00973
3610.70701	0.00992
3608.77821	0.00984
3606.84942	0.01176
3604.92062	0.01345
3602.99183	0.01198
3601.06303	0.01018
3599.13423	0.01044
3597.20544	0.01078
3595.27664	0.01060
3593.34784	0.01206
3591.41905	0.01306
3589.49025	0.01063
3587.56145	0.00934
3585.63266	0.01223
3583.70386	0.01350
3581.77506	0.01136
3579.84627	0.00933
3577.91747	0.00871
3575.98867	0.00883
3574.05988	0.00959
3572.13108	0.01031
3570.20229	0.00848
3568.27349	0.00524
3566.34469	0.00675
3564.41590	0.01133
3562.48710	0.01249
3560.55830	0.01129
3558.62951	0.01078
3556.70071	0.01052
3554.77191	0.00948
3552.84312	0.00875
3550.91432	0.00924
3548.98552	0.00874
3547.05673	0.00734
3545.12793	0.00835
3543.19913	0.01082
3541.27034	0.01174
3539.34154	0.01080
3537.41274	0.00945
3535.48395	0.00920
3533.55515	0.00975
3531.62636	0.00974
3529.69756	0.00920
3527.76876	0.00887
3525.83997	0.00896
3523.91117	0.00936
3521.98237	0.01010
3520.05358	0.01039
3518.12478	0.01010
3516.19598	0.01001
3514.26719	0.00985
3512.33839	0.00944
3510.40959	0.00949
3508.48080	0.01070
3506.55200	0.01130
3504.62320	0.00994
3502.69441	0.00937
3500.76561	0.01036
3498.83682	0.01053
3496.90802	0.00999
3494.97922	0.01006
3493.05043	0.01038
3491.12163	0.01007
3489.19283	0.00945
3487.26404	0.00980
3485.33524	0.01091
3483.40644	0.01125
3481.47765	0.01135
3479.54885	0.01177
3477.62005	0.01145
3475.69126	0.01078
3473.76246	0.01075
3471.83366	0.01095
3469.90487	0.01090
3467.97607	0.01091
3466.04728	0.01133
3464.11848	0.01169
3462.18968	0.01174
3460.26089	0.01184
3458.33209	0.01162
3456.40329	0.01120
3454.47450	0.01117
3452.54570	0.01148
3450.61690	0.01154
3448.68811	0.01082
3446.75931	0.01060
3444.83051	0.01131
3442.90172	0.01132
3440.97292	0.01122
3439.04412	0.01143
3437.11533	0.01134
3435.18653	0.01097
3433.25774	0.01058
3431.32894	0.01038
3429.40014	0.01019
3427.47135	0.00965
3425.54255	0.00890
3423.61375	0.00818
3421.68496	0.00751
3419.75616	0.00725
3417.82736	0.00728
3415.89857	0.00729
3413.96977	0.00758
3412.04097	0.00799
3410.11218	0.00822
3408.18338	0.00793
3406.25458	0.00731
3404.32579	0.00749
3402.39699	0.00861
3400.46819	0.00866
3398.53940	0.00568
3396.61060	0.00484
3394.68181	0.00562
3392.75301	0.00658
3390.82421	0.00678
3388.89542	0.00552
3386.96662	0.00366
3385.03782	0.00302
3383.10903	0.00369
3381.18023	0.00443
3379.25143	0.00466
3377.32264	0.00463
3375.39384	0.00457
3373.46504	0.00559
3371.53625	0.00810
3369.60745	0.00990
3367.67865	0.00917
3365.74986	0.00679
3363.82106	0.00508
3361.89227	0.00492
3359.96347	0.00495
3358.03467	0.00412
3356.10588	0.00377
3354.17708	0.00557
3352.24828	0.00856
3350.31949	0.00978
3348.39069	0.00862
3346.46189	0.00799
3344.53310	0.00918
3342.60430	0.01073
3340.67550	0.01218
3338.74671	0.01322
3336.81791	0.01277
3334.88911	0.01158
3332.96032	0.01118
3331.03152	0.01184
3329.10273	0.01359
3327.17393	0.01597
3325.24513	0.01731
3323.31634	0.01693
3321.38754	0.01620
3319.45874	0.01639
3317.52995	0.01739
3315.60115	0.01838
3313.67235	0.01932
3311.74356	0.02103
3309.81476	0.02356
3307.88596	0.02596
3305.95717	0.02693
3304.02837	0.02596
3302.09957	0.02448
3300.17078	0.02433
3298.24198	0.02573
3296.31318	0.02752
3294.38439	0.02856
3292.45559	0.02847
3290.52680	0.02758
3288.59800	0.02697
3286.66920	0.02751
3284.74041	0.02877
3282.81161	0.02979
3280.88281	0.03028
3278.95402	0.03055
3277.02522	0.03125
3275.09642	0.03269
3273.16763	0.03458
3271.23883	0.03597
3269.31003	0.03602
3267.38124	0.03545
3265.45244	0.03554
3263.52364	0.03644
3261.59485	0.03777
3259.66605	0.03923
3257.73726	0.04067
3255.80846	0.04180
3253.87966	0.04269
3251.95087	0.04402
3250.02207	0.04596
3248.09327	0.04779
3246.16448	0.04875
3244.23568	0.04944
3242.30688	0.05046
3240.37809	0.05139
3238.44929	0.05244
3236.52049	0.05439
3234.59170	0.05685
3232.66290	0.05826
3230.73410	0.05838
3228.80531	0.05840
3226.87651	0.05917
3224.94772	0.06051
3223.01892	0.06187
3221.09012	0.06324
3219.16133	0.06476
3217.23253	0.06574
3215.30373	0.06581
3213.37494	0.06607
3211.44614	0.06700
3209.51734	0.06827
3207.58855	0.06982
3205.65975	0.07114
3203.73095	0.07212
3201.80216	0.07309
3199.87336	0.07407
3197.94456	0.07523
3196.01577	0.07702
3194.08697	0.07937
3192.15817	0.08180
3190.22938	0.08392
3188.30058	0.08559
3186.37179	0.08715
3184.44299	0.08882
3182.51419	0.09041
3180.58540	0.09141
3178.65660	0.09198
3176.72780	0.09291
3174.79901	0.09416
3172.87021	0.09537
3170.94141	0.09684
3169.01262	0.09864
3167.08382	0.10039
3165.15502	0.10188
3163.22623	0.10325
3161.29743	0.10450
3159.36863	0.10588
3157.43984	0.10828
3155.51104	0.11206
3153.58225	0.11579
3151.65345	0.11769
3149.72465	0.11825
3147.79586	0.11894
3145.86706	0.12040
3143.93826	0.12273
3142.00947	0.12579
3140.08067	0.12863
3138.15187	0.13022
3136.22308	0.13094
3134.29428	0.13226
3132.36548	0.13524
3130.43669	0.13879
3128.50789	0.14146
3126.57909	0.14375
3124.65030	0.14670
3122.72150	0.15065
3120.79271	0.15482
3118.86391	0.15798
3116.93511	0.16023
3115.00632	0.16250
3113.07752	0.16510
3111.14872	0.16793
3109.21993	0.17073
3107.29113	0.17313
3105.36233	0.17522
3103.43354	0.17756
3101.50474	0.18088
3099.57594	0.18504
3097.64715	0.18898
3095.71835	0.19294
3093.78955	0.19726
3091.86076	0.20076
3089.93196	0.20295
3088.00317	0.20478
3086.07437	0.20707
3084.14557	0.20999
3082.21678	0.21447
3080.28798	0.22312
3078.35918	0.24065
3076.43039	0.27068
3074.50159	0.30734
3072.57279	0.33501
3070.64400	0.34287
3068.71520	0.33498
3066.78640	0.32311
3064.85761	0.31509
3062.92881	0.31045
3061.00001	0.30472
3059.07122	0.29624
3057.14242	0.28710
3055.21362	0.27972
3053.28483	0.27472
3051.35603	0.27155
3049.42724	0.26993
3047.49844	0.26980
3045.56964	0.27095
3043.64085	0.27309
3041.71205	0.27595
3039.78325	0.27927
3037.85446	0.28281
3035.92566	0.28656
3033.99686	0.29034
3032.06807	0.29405
3030.13927	0.29779
3028.21047	0.30149
3026.28168	0.30525
3024.35288	0.30923
3022.42408	0.31323
3020.49529	0.31717
3018.56649	0.32090
3016.63770	0.32412
3014.70890	0.32680
3012.78010	0.32899
3010.85131	0.33101
3008.92251	0.33292
3006.99371	0.33437
3005.06492	0.33558
3003.13612	0.33703
3001.20732	0.33863
2999.27853	0.34025
2997.34973	0.34055
2995.42093	0.34009
2993.49214	0.33955
2991.56334	0.33882
2989.63454	0.33783
2987.70575	0.33764
2985.77695	0.33916
2983.84816	0.34172
2981.91936	0.34353
2979.99056	0.34350
2978.06177	0.34231
2976.13297	0.34101
2974.20417	0.33986
2972.27538	0.33885
2970.34658	0.33796
2968.41778	0.33703
2966.48899	0.33605
2964.56019	0.33521
2962.63139	0.33455
2960.70260	0.33411
2958.77380	0.33396
2956.84500	0.33408
2954.91621	0.33470
2952.98741	0.33606
2951.05861	0.33755
2949.12982	0.33851
2947.20102	0.33879
2945.27223	0.33780
2943.34343	0.33516
2941.41463	0.33145
2939.48584	0.32729
2937.55704	0.32286
2935.62824	0.31822
2933.69945	0.31356
2931.77065	0.30943
2929.84185	0.30631
2927.91306	0.30424
2925.98426	0.30337
2924.05546	0.30396
2922.12667	0.30611
2920.19787	0.30970
2918.26907	0.31409
2916.34028	0.31831
2914.41148	0.32161
2912.48269	0.32365
2910.55389	0.32434
2908.62509	0.32467
2906.69630	0.32662
2904.76750	0.33057
2902.83870	0.33536
2900.90991	0.34079
2898.98111	0.34719
2897.05231	0.35387
2895.12352	0.35991
2893.19472	0.36519
2891.26592	0.37011
2889.33713	0.37498
2887.40833	0.37924
2885.47953	0.38215
2883.55074	0.38397
2881.62194	0.38536
2879.69315	0.38667
2877.76435	0.38808
2875.83555	0.38928
2873.90676	0.38959
2871.97796	0.38874
2870.04916	0.38684
2868.12037	0.38414
2866.19157	0.38058
2864.26277	0.37649
2862.33398	0.37305
2860.40518	0.37105
2858.47638	0.37065
2856.54759	0.37250
2854.61879	0.37699
2852.68999	0.38375
2850.76120	0.39220
2848.83240	0.40092
2846.90360	0.40814
2844.97481	0.41412
2843.04601	0.42047
2841.11722	0.42773
2839.18842	0.43439
2837.25962	0.43893
2835.33083	0.44182
2833.40203	0.44407
2831.47323	0.44580
2829.54444	0.44694
2827.61564	0.44774
2825.68684	0.44843
2823.75805	0.44864
2821.82925	0.44801
2819.90045	0.44671
2817.97166	0.44478
2816.04286	0.44236
2814.11406	0.43997
2812.18527	0.43768
2810.25647	0.43457
2808.32768	0.43002
2806.39888	0.42471
2804.47008	0.41962
2802.54129	0.41511
2800.61249	0.41105
2798.68369	0.40667
2796.75490	0.40152
2794.82610	0.39634
2792.89730	0.39182
2790.96851	0.38751
2789.03971	0.38293
2787.11091	0.37895
2785.18212	0.37675
2783.25332	0.37602
2781.32452	0.37523
2779.39573	0.37320
2777.46693	0.36984
2775.53814	0.36573
2773.60934	0.36127
2771.68054	0.35705
2769.75175	0.35416
2767.82295	0.35287
2765.89415	0.35222
2763.96536	0.35105
2762.03656	0.34911
2760.10776	0.34688
2758.17897	0.34465
2756.25017	0.34245
2754.32137	0.34008
2752.39258	0.33728
2750.46378	0.33386
2748.53498	0.32987
2746.60619	0.32579
2744.67739	0.32232
2742.74860	0.31981
2740.81980	0.31856
2738.89100	0.31881
2736.96221	0.32036
2735.03341	0.32310
2733.10461	0.32674
2731.17582	0.33061
2729.24702	0.33400
2727.31822	0.33612
2725.38943	0.33656
2723.46063	0.33562
2721.53183	0.33353
2719.60304	0.33035
2717.67424	0.32642
2715.74544	0.32201
2713.81665	0.31750
2711.88785	0.31354
2709.95905	0.31060
2708.03026	0.30919
2706.10146	0.31011
2704.17267	0.31382
2702.24387	0.32032
2700.31507	0.32927
2698.38628	0.34013
2696.45748	0.35212
2694.52868	0.36426
2692.59989	0.37588
2690.67109	0.38684
2688.74229	0.39695
2686.81350	0.40592
2684.88470	0.41396
2682.95590	0.42135
2681.02711	0.42785
2679.09831	0.43311
2677.16951	0.43724
2675.24072	0.44040
2673.31192	0.44254
2671.38313	0.44375
2669.45433	0.44436
2667.52553	0.44465
2665.59674	0.44450
2663.66794	0.44354
2661.73914	0.44179
2659.81035	0.43948
2657.88155	0.43672
2655.95275	0.43368
2654.02396	0.43044
2652.09516	0.42716
2650.16636	0.42453
2648.23757	0.42310
2646.30877	0.42249
2644.37997	0.42188
2642.45118	0.42087
2640.52238	0.41940
2638.59359	0.41723
2636.66479	0.41394
2634.73599	0.40966
2632.80720	0.40490
2630.87840	0.39976
2628.94960	0.39432
2627.02081	0.38909
2625.09201	0.38466
2623.16321	0.38130
2621.23442	0.37920
2619.30562	0.37861
2617.37682	0.37963
2615.44803	0.38224
2613.51923	0.38649
2611.59043	0.39215
2609.66164	0.39833
2607.73284	0.40356
2605.80404	0.40641
2603.87525	0.40628
2601.94645	0.40330
2600.01766	0.39818
2598.08886	0.39186
2596.16006	0.38484
2594.23127	0.37761
2592.30247	0.37091
2590.37367	0.36551
2588.44488	0.36213
2586.51608	0.36129
2584.58728	0.36324
2582.65849	0.36818
2580.72969	0.37611
2578.80089	0.38667
2576.87210	0.39873
2574.94330	0.41104
2573.01450	0.42328
2571.08571	0.43523
2569.15691	0.44619
2567.22812	0.45563
2565.29932	0.46314
2563.37052	0.46890
2561.44173	0.47370
2559.51293	0.47794
2557.58413	0.48141
2555.65534	0.48389
2553.72654	0.48539
2551.79774	0.48589
2549.86895	0.48520
2547.94015	0.48339
2546.01135	0.48114
2544.08256	0.47899
2542.15376	0.47679
2540.22496	0.47409
2538.29617	0.47079
2536.36737	0.46724
2534.43858	0.46366
2532.50978	0.45990
2530.58098	0.45609
2528.65219	0.45240
2526.72339	0.44869
2524.79459	0.44476
2522.86580	0.44069
2520.93700	0.43661
2519.00820	0.43260
2517.07941	0.42897
2515.15061	0.42585
2513.22181	0.42290
2511.29302	0.42000
2509.36422	0.41748
2507.43542	0.41536
2505.50663	0.41329
2503.57783	0.41108
2501.64904	0.40861
2499.72024	0.40578
2497.79144	0.40251
2495.86265	0.39865
2493.93385	0.39477
2492.00505	0.39138
2490.07626	0.38812
2488.14746	0.38510
2486.21866	0.38274
2484.28987	0.38073
2482.36107	0.37871
2480.43227	0.37686
2478.50348	0.37528
2476.57468	0.37382
2474.64588	0.37225
2472.71709	0.37036
2470.78829	0.36815
2468.85949	0.36578
2466.93070	0.36315
2465.00190	0.36020
2463.07311	0.35720
2461.14431	0.35411
2459.21551	0.35084
2457.28672	0.34782
2455.35792	0.34539
2453.42912	0.34300
2451.50033	0.34017
2449.57153	0.33744
2447.64273	0.33517
2445.71394	0.33285
2443.78514	0.33040
2441.85634	0.32839
2439.92755	0.32673
2437.99875	0.32481
2436.06995	0.32271
2434.14116	0.32094
2432.21236	0.31959
2430.28357	0.31842
2428.35477	0.31718
2426.42597	0.31592
2424.49718	0.31501
2422.56838	0.31434
2420.63958	0.31340
2418.71079	0.31224
2416.78199	0.31089
2414.85319	0.30932
2412.92440	0.30782
2410.99560	0.30630
2409.06680	0.30441
2407.13801	0.30243
2405.20921	0.30078
2403.28041	0.29925
2401.35162	0.29764
2399.42282	0.29554
2397.49403	0.29418
2395.56523	0.29340
2393.63643	0.29245
2391.70764	0.29085
2389.77884	0.28890
2387.85004	0.28731
2385.92125	0.28603
2383.99245	0.28450
2382.06365	0.28263
2380.13486	0.28053
2378.20606	0.27841
2376.27726	0.27583
2374.34847	0.27321
2372.41967	0.27025
2370.49087	0.26734
2368.56208	0.26609
2366.63328	0.26347
2364.70448	0.26156
2362.77569	0.26178
2360.84689	0.26075
2358.91810	0.26197
2356.98930	0.26579
2355.06050	0.27226
2353.13171	0.27772
2351.20291	0.27717
2349.27411	0.27028
2347.34532	0.27024
2345.41652	0.27133
2343.48772	0.26859
2341.55893	0.26631
2339.63013	0.26316
2337.70133	0.26086
2335.77254	0.26036
2333.84374	0.25954
2331.91494	0.25981
2329.98615	0.25991
2328.05735	0.26025
2326.12856	0.25849
2324.19976	0.25700
2322.27096	0.25467
2320.34217	0.25255
2318.41337	0.24893
2316.48457	0.24574
2314.55578	0.24348
2312.62698	0.24151
2310.69818	0.24027
2308.76939	0.23944
2306.84059	0.23854
2304.91179	0.23733
2302.98300	0.23622
2301.05420	0.23518
2299.12540	0.23367
2297.19661	0.23178
2295.26781	0.22978
2293.33902	0.22779
2291.41022	0.22631
2289.48142	0.22531
2287.55263	0.22408
2285.62383	0.22247
2283.69503	0.22064
2281.76624	0.21864
2279.83744	0.21619
2277.90864	0.21361
2275.97985	0.21164
2274.05105	0.21026
2272.12225	0.20892
2270.19346	0.20742
2268.26466	0.20617
2266.33586	0.20528
2264.40707	0.20430
2262.47827	0.20281
2260.54947	0.20121
2258.62068	0.19951
2256.69188	0.19797
2254.76309	0.19741
2252.83429	0.19776
2250.90549	0.19794
2248.97670	0.19724
2247.04790	0.19641
2245.11910	0.19574
2243.19031	0.19530
2241.26151	0.19425
2239.33271	0.19214
2237.40392	0.19015
2235.47512	0.18878
2233.54632	0.18725
2231.61753	0.18556
2229.68873	0.18422
2227.75993	0.18343
2225.83114	0.18298
2223.90234	0.18220
2221.97355	0.18103
2220.04475	0.18002
2218.11595	0.17920
2216.18716	0.17866
2214.25836	0.17832
2212.32956	0.17717
2210.40077	0.17530
2208.47197	0.17397
2206.54317	0.17221
2204.61438	0.16900
2202.68558	0.16651
2200.75678	0.16669
2198.82799	0.16839
2196.89919	0.16928
2194.97039	0.16856
2193.04160	0.16751
2191.11280	0.16750
2189.18401	0.16855
2187.25521	0.16987
2185.32641	0.17075
2183.39762	0.17070
2181.46882	0.17016
2179.54002	0.17018
2177.61123	0.17002
2175.68243	0.16863
2173.75363	0.16701
2171.82484	0.16563
2169.89604	0.16394
2167.96724	0.16169
2166.03845	0.15860
2164.10965	0.15523
2162.18085	0.15321
2160.25206	0.15266
2158.32326	0.15174
2156.39447	0.14916
2154.46567	0.14552
2152.53687	0.14220
2150.60808	0.14001
2148.67928	0.13860
2146.75048	0.13695
2144.82169	0.13570
2142.89289	0.13643
2140.96409	0.13841
2139.03530	0.13975
2137.10650	0.13990
2135.17770	0.13968
2133.24891	0.14020
2131.32011	0.14183
2129.39131	0.14391
2127.46252	0.14546
2125.53372	0.14648
2123.60492	0.14750
2121.67613	0.14840
2119.74733	0.14894
2117.81854	0.14934
2115.88974	0.14975
2113.96094	0.14994
2112.03215	0.15031
2110.10335	0.15108
2108.17455	0.15145
2106.24576	0.15100
2104.31696	0.15037
2102.38816	0.15068
2100.45937	0.15281
2098.53057	0.15773
2096.60177	0.16210
2094.67298	0.16508
2092.74418	0.16684
2090.81538	0.16814
2088.88659	0.16932
2086.95779	0.16961
2085.02900	0.16865
2083.10020	0.16670
2081.17140	0.16481
2079.24261	0.16279
2077.31381	0.15979
2075.38501	0.15582
2073.45622	0.15179
2071.52742	0.14852
2069.59862	0.14587
2067.66983	0.14291
2065.74103	0.13967
2063.81223	0.13704
2061.88344	0.13417
2059.95464	0.12985
2058.02584	0.12455
2056.09705	0.11930
2054.16825	0.11567
2052.23946	0.11539
2050.31066	0.11876
2048.38186	0.12280
2046.45307	0.12420
2044.52427	0.12282
2042.59547	0.12023
2040.66668	0.11878
2038.73788	0.11993
2036.80908	0.12231
2034.88029	0.12360
2032.95149	0.12325
2031.02269	0.12278
2029.09390	0.12225
2027.16510	0.12066
2025.23630	0.11886
2023.30751	0.11826
2021.37871	0.11855
2019.44991	0.11844
2017.52112	0.11754
2015.59232	0.11648
2013.66353	0.11593
2011.73473	0.11665
2009.80593	0.11859
2007.87714	0.11981
2005.94834	0.11866
2004.01954	0.11504
2002.09075	0.11058
2000.16195	0.10838
1998.23315	0.11004
1996.30436	0.11389
1994.37556	0.11750
1992.44676	0.12058
1990.51797	0.12358
1988.58917	0.12369
1986.66037	0.12167
1984.73158	0.12135
1982.80278	0.12367
1980.87399	0.12814
1978.94519	0.13377
1977.01639	0.13984
1975.08760	0.14663
1973.15880	0.15345
1971.23000	0.15587
1969.30121	0.14978
1967.37241	0.13916
1965.44361	0.13117
1963.51482	0.12651
1961.58602	0.12400
1959.65722	0.12312
1957.72843	0.12252
1955.79963	0.12229
1953.87083	0.12287
1951.94204	0.12347
1950.01324	0.12381
1948.08445	0.12407
1946.15565	0.12399
1944.22685	0.12349
1942.29806	0.12563
1940.36926	0.13220
1938.44046	0.13975
1936.51167	0.14729
1934.58287	0.15413
1932.65407	0.15779
1930.72528	0.15813
1928.79648	0.15745
1926.86768	0.15782
1924.93889	0.15910
1923.01009	0.16185
1921.08129	0.16648
1919.15250	0.17016
1917.22370	0.17438
1915.29490	0.17737
1913.36611	0.17410
1911.43731	0.16717
1909.50852	0.16064
1907.57972	0.15598
1905.65092	0.15236
1903.72213	0.14930
1901.79333	0.14739
1899.86453	0.14633
1897.93574	0.14487
1896.00694	0.14303
1894.07814	0.14252
1892.14935	0.14174
1890.22055	0.13927
1888.29175	0.13808
1886.36296	0.13724
1884.43416	0.13509
1882.50536	0.13329
1880.57657	0.13198
1878.64777	0.13058
1876.71898	0.12909
1874.79018	0.12782
1872.86138	0.12641
1870.93259	0.12279
1869.00379	0.11915
1867.07499	0.11943
1865.14620	0.11959
1863.21740	0.11702
1861.28860	0.11401
1859.35981	0.11197
1857.43101	0.11059
1855.50221	0.10945
1853.57342	0.10852
1851.64462	0.10788
1849.71582	0.10751
1847.78703	0.10707
1845.85823	0.10489
1843.92944	0.10400
1842.00064	0.10722
1840.07184	0.10902
1838.14305	0.10848
1836.21425	0.10970
1834.28545	0.11280
1832.35666	0.11540
1830.42786	0.11880
1828.49906	0.12584
1826.57027	0.13162
1824.64147	0.13453
1822.71267	0.13692
1820.78388	0.13604
1818.85508	0.13168
1816.92628	0.12739
1814.99749	0.12517
1813.06869	0.12379
1811.13990	0.12332
1809.21110	0.12492
1807.28230	0.12736
1805.35351	0.12937
1803.42471	0.13079
1801.49591	0.13306
1799.56712	0.13812
1797.63832	0.14392
1795.70952	0.14722
1793.78073	0.14764
1791.85193	0.14970
1789.92313	0.15384
1787.99434	0.15265
1786.06554	0.14525
1784.13674	0.13760
1782.20795	0.13089
1780.27915	0.12423
1778.35035	0.11912
1776.42156	0.11384
1774.49276	0.10525
1772.56397	0.09598
1770.63517	0.09050
1768.70637	0.08491
1766.77758	0.07898
1764.84878	0.07350
1762.91998	0.06602
1760.99119	0.06131
1759.06239	0.05962
1757.13359	0.05839
1755.20480	0.06063
1753.27600	0.06184
1751.34720	0.05955
1749.41841	0.05839
1747.48961	0.05636
1745.56081	0.04970
1743.63202	0.03976
1741.70322	0.02878
1739.77443	0.02057
1737.84563	0.01753
1735.91683	0.01039
1733.98804	0.00302
1732.05924	0.00781
1730.13044	0.01546
1728.20165	0.02388
1726.27285	0.03845
1724.34405	0.06134
1722.41526	0.09190
1720.48646	0.12416
1718.55766	0.15960
1716.62887	0.20540
1714.70007	0.25113
1712.77127	0.28811
1710.84248	0.32431
1708.91368	0.36987
1706.98489	0.42969
1705.05609	0.49833
1703.12729	0.55987
1701.19850	0.61661
1699.26970	0.69065
1697.34090	0.77684
1695.41211	0.87546
1693.48331	0.98651
1691.55451	1.09978
1689.62572	1.22276
1687.69692	1.34755
1685.76812	1.46823
1683.83933	1.59177
1681.91053	1.67772
1679.98173	1.69940
1678.05294	1.68446
1676.12414	1.65514
1674.19534	1.61738
1672.26655	1.56348
1670.33775	1.48694
1668.40896	1.40470
1666.48016	1.32803
1664.55136	1.24958
1662.62257	1.17278
1660.69377	1.10909
1658.76497	1.05658
1656.83618	1.00600
1654.90738	0.94663
1652.97858	0.88886
1651.04979	0.85269
1649.12099	0.81146
1647.19219	0.75570
1645.26340	0.70806
1643.33460	0.67075
1641.40580	0.63548
1639.47701	0.60208
1637.54821	0.56750
1635.61942	0.53505
1633.69062	0.51369
1631.76182	0.49444
1629.83303	0.47273
1627.90423	0.45671
1625.97543	0.44842
1624.04664	0.44568
1622.11784	0.45451
1620.18904	0.46713
1618.26025	0.46107
1616.33145	0.43638
1614.40265	0.41330
1612.47386	0.40340
1610.54506	0.41692
1608.61626	0.46274
1606.68747	0.53468
1604.75867	0.61467
1602.82988	0.67998
1600.90108	0.70640
1598.97228	0.67990
1597.04349	0.60984
1595.11469	0.52261
1593.18589	0.44565
1591.25710	0.40442
1589.32830	0.42712
1587.39950	0.52346
1585.47071	0.65235
1583.54191	0.74421
1581.61311	0.76581
1579.68432	0.73493
1577.75552	0.67771
1575.82672	0.61951
1573.89793	0.57952
1571.96913	0.54665
1570.04034	0.51480
1568.11154	0.49202
1566.18274	0.47362
1564.25395	0.45628
1562.32515	0.43880
1560.39635	0.41488
1558.46756	0.40028
1556.53876	0.39973
1554.60996	0.39234
1552.68117	0.38036
1550.75237	0.36956
1548.82357	0.36093
1546.89478	0.35281
1544.96598	0.34318
1543.03718	0.33328
1541.10839	0.32206
1539.17959	0.31705
1537.25079	0.31753
1535.32200	0.30914
1533.39320	0.29834
1531.46441	0.29674
1529.53561	0.29549
1527.60681	0.29141
1525.67802	0.28918
1523.74922	0.28374
1521.82042	0.27175
1519.89163	0.26028
1517.96283	0.24571
1516.03403	0.22902
1514.10524	0.21638
1512.17644	0.20623
1510.24764	0.19592
1508.31885	0.18117
1506.39005	0.17142
1504.46125	0.17627
1502.53246	0.18727
1500.60366	0.21278
1498.67487	0.25873
1496.74607	0.29616
1494.81727	0.29268
1492.88848	0.25274
1490.95968	0.20152
1489.03088	0.16301
1487.10209	0.14169
1485.17329	0.12770
1483.24449	0.11508
1481.31570	0.10481
1479.38690	0.09841
1477.45810	0.09281
1475.52931	0.08617
1473.60051	0.07901
1471.67171	0.07718
1469.74292	0.08231
1467.81412	0.08912
1465.88533	0.10119
1463.95653	0.12285
1462.02773	0.14532
1460.09894	0.18181
1458.17014	0.30518
1456.24134	0.55251
1454.31255	0.77484
1452.38375	0.81647
1450.45495	0.68867
1448.52616	0.50237
1446.59736	0.35410
1444.66856	0.26871
1442.73977	0.22720
1440.81097	0.21451
1438.88217	0.22749
1436.95338	0.27631
1435.02458	0.36373
1433.09578	0.46906
1431.16699	0.58400
1429.23819	0.70266
1427.30940	0.80221
1425.38060	0.87397
1423.45180	0.92667
1421.52301	0.95950
1419.59421	0.96947
1417.66541	0.96174
1415.73662	0.93352
1413.80782	0.88476
1411.87902	0.82451
1409.95023	0.76213
1408.02143	0.70268
1406.09263	0.64876
1404.16384	0.60503
1402.23504	0.56985
1400.30624	0.53363
1398.37745	0.49416
1396.44865	0.45315
1394.51986	0.41314
1392.59106	0.37998
1390.66226	0.35186
1388.73347	0.32502
1386.80467	0.30250
1384.87587	0.28492
1382.94708	0.26702
1381.01828	0.24789
1379.08948	0.22971
1377.16069	0.21270
1375.23189	0.19578
1373.30309	0.18074
1371.37430	0.16776
1369.44550	0.15439
1367.51670	0.14211
1365.58791	0.13077
1363.65911	0.11876
1361.73032	0.10953
1359.80152	0.10465
1357.87272	0.10219
1355.94393	0.10278
1354.01513	0.10608
1352.08633	0.10792
1350.15754	0.10514
1348.22874	0.09934
1346.29994	0.09406
1344.37115	0.09192
1342.44235	0.09429
1340.51355	0.10440
1338.58476	0.12919
1336.65596	0.17469
1334.72716	0.24997
1332.79837	0.37081
1330.86957	0.54480
1328.94077	0.75525
1327.01198	0.96291
1325.08318	1.11609
1323.15439	1.16375
1321.22559	1.08920
1319.29679	0.93643
1317.36800	0.77648
1315.43920	0.64745
1313.51040	0.55004
1311.58161	0.48630
1309.65281	0.47087
1307.72401	0.51267
1305.79522	0.59954
1303.86642	0.70606
1301.93762	0.81914
1300.00883	0.94524
1298.08003	1.09403
1296.15123	1.26202
1294.22244	1.42935
1292.29364	1.56944
1290.36485	1.66176
1288.43605	1.69904
1286.50725	1.68768
1284.57846	1.64337
1282.64966	1.58518
1280.72086	1.53187
1278.79207	1.49658
1276.86327	1.47817
1274.93447	1.45974
1273.00568	1.42094
1271.07688	1.35514
1269.14808	1.27280
1267.21929	1.18942
1265.29049	1.11487
1263.36169	1.05172
1261.43290	0.99895
1259.50410	0.95566
1257.57531	0.92000
1255.64651	0.88801
1253.71771	0.85584
1251.78892	0.82203
1249.86012	0.78778
1247.93132	0.75523
1246.00253	0.72523
1244.07373	0.69711
1242.14493	0.66975
1240.21614	0.64236
1238.28734	0.61496
1236.35854	0.58819
1234.42975	0.56291
1232.50095	0.53987
1230.57215	0.51956
1228.64336	0.50191
1226.71456	0.48663
1224.78577	0.47361
1222.85697	0.46274
1220.92817	0.45383
1218.99938	0.44755
1217.07058	0.44531
1215.14178	0.44650
1213.21299	0.44620
1211.28419	0.43899
1209.35539	0.42491
1207.42660	0.40802
1205.49780	0.39112
1203.56900	0.37501
1201.64021	0.36035
1199.71141	0.34885
1197.78261	0.34151
1195.85382	0.34330
1193.92502	0.36397
1191.99622	0.42147
1190.06743	0.52900
1188.13863	0.66321
1186.20984	0.76479
1184.28104	0.80550
1182.35224	0.81737
1180.42345	0.82273
1178.49465	0.79855
1176.56585	0.73063
1174.63706	0.64525
1172.70826	0.57519
1170.77946	0.53234
1168.85067	0.50692
1166.92187	0.48126
1164.99307	0.45065
1163.06428	0.42250
1161.13548	0.40081
1159.20668	0.38442
1157.27789	0.37160
1155.34909	0.36128
1153.42030	0.35320
1151.49150	0.34709
1149.56270	0.34191
1147.63391	0.33643
1145.70511	0.32996
1143.77631	0.32243
1141.84752	0.31513
1139.91872	0.31075
1137.98992	0.31348
1136.06113	0.33054
1134.13233	0.37516
1132.20353	0.46241
1130.27474	0.58305
1128.34594	0.68091
1126.41714	0.69597
1124.48835	0.63512
1122.55955	0.55208
1120.63076	0.48128
1118.70196	0.42698
1116.77316	0.38491
1114.84437	0.35282
1112.91557	0.32927
1110.98677	0.31278
1109.05798	0.30323
1107.12918	0.30364
1105.20038	0.32107
1103.27159	0.35688
1101.34279	0.38963
1099.41399	0.38948
1097.48520	0.35819
1095.55640	0.32222
1093.62760	0.29574
1091.69881	0.27717
1089.77001	0.26256
1087.84121	0.25025
1085.91242	0.23985
1083.98362	0.23185
1082.05483	0.22902
1080.12603	0.24124
1078.19723	0.29288
1076.26844	0.40302
1074.33964	0.53381
1072.41084	0.60204
1070.48205	0.58194
1068.55325	0.52167
1066.62445	0.46194
1064.69566	0.41411
1062.76686	0.37877
1060.83806	0.35392
1058.90927	0.33670
1056.98047	0.32480
1055.05167	0.31649
1053.12288	0.30998
1051.19408	0.30410
1049.26529	0.29774
1047.33649	0.29068
1045.40769	0.28289
1043.47890	0.27430
1041.55010	0.26495
1039.62130	0.25476
1037.69251	0.24383
1035.76371	0.23218
1033.83491	0.22409
1031.90612	0.24835
1029.97732	0.36123
1028.04852	0.54203
1026.11973	0.63493
1024.19093	0.56626
1022.26213	0.45146
1020.33334	0.37951
1018.40454	0.34402
1016.47575	0.32102
1014.54695	0.30181
1012.61815	0.28669
1010.68936	0.27552
1008.76056	0.26698
1006.83176	0.26033
1004.90297	0.26308
1002.97417	0.29204
1001.04537	0.33291
999.11658	0.34167
997.18778	0.31772
995.25898	0.29099
993.33019	0.26832
991.40139	0.25166
989.47259	0.24493
987.54380	0.24227
985.61500	0.23757
983.68620	0.23199
981.75741	0.22934
979.82861	0.23115
977.89982	0.23686
975.97102	0.24227
974.04222	0.24412
972.11343	0.24519
970.18463	0.24922
968.25583	0.25662
966.32704	0.26659
964.39824	0.27931
962.46944	0.29534
960.54065	0.31612
958.61185	0.34405
956.68305	0.38131
954.75426	0.42875
952.82546	0.48519
950.89666	0.54854
948.96787	0.61653
947.03907	0.68789
945.11028	0.75991
943.18148	0.82210
941.25268	0.86977
939.32389	0.92356
937.39509	0.99983
935.46629	1.07771
933.53750	1.12956
931.60870	1.15107
929.67990	1.15084
927.75111	1.13920
925.82231	1.12461
923.89351	1.11097
921.96472	1.09709
920.03592	1.07976
918.10712	1.05608
916.17833	1.02446
914.24953	0.98559
912.32074	0.94163
910.39194	0.89489
908.46314	0.84698
906.53435	0.79947
904.60555	0.75368
902.67675	0.71039
900.74796	0.67007
898.81916	0.63291
896.89036	0.59909
894.96157	0.56859
893.03277	0.54121
891.10397	0.51636
889.17518	0.49357
887.24638	0.47266
885.31758	0.45335
883.38879	0.43568
881.45999	0.41931
879.53120	0.40359
877.60240	0.38823
875.67360	0.37358
873.74481	0.36007
871.81601	0.34767
869.88721	0.33624
867.95842	0.32563
866.02962	0.31620
864.10082	0.30835
862.17203	0.30267
860.24323	0.30202
858.31443	0.30754
856.38564	0.31126
854.45684	0.30409
852.52804	0.28857
850.59925	0.27279
848.67045	0.26066
846.74165	0.25216
844.81286	0.24642
842.88406	0.24296
840.95527	0.24142
839.02647	0.24156
837.09767	0.24317
835.16888	0.24585
833.24008	0.24876
831.31128	0.25060
829.38249	0.25053
827.45369	0.24895
825.52489	0.24807
823.59610	0.25250
821.66730	0.26830
819.73850	0.29620
817.80971	0.32759
815.88091	0.36749
813.95211	0.44952
812.02332	0.57151
810.09452	0.66571
808.16573	0.70870
806.23693	0.74275
804.30813	0.76631
802.37934	0.74261
800.45054	0.67137
798.52174	0.58316
796.59295	0.50340
794.66415	0.44079
792.73535	0.39359
790.80656	0.35717
788.87776	0.32860
786.94896	0.30581
785.02017	0.28680
783.09137	0.26983
781.16257	0.25370
779.23378	0.23821
777.30498	0.22334
775.37619	0.20964
773.44739	0.19724
771.51859	0.18597
769.58980	0.17606
767.66100	0.16871
765.73220	0.16482
763.80341	0.16072
761.87461	0.15213
759.94581	0.14077
758.01702	0.13139
756.08822	0.12532
754.15942	0.12068
752.23063	0.11541
750.30183	0.10917
748.37303	0.10309
746.44424	0.09660
744.51544	0.08872
742.58664	0.07950
740.65785	0.06957
738.72905	0.05984
736.80026	0.05048
734.87146	0.04149
732.94266	0.03240
731.01387	0.02348
729.08507	0.01551
727.15627	0.00907
725.22748	0.00463
723.29868	0.00302
721.36988	0.00770
719.44109	0.03012
717.51229	0.09959
715.58349	0.25673
713.65470	0.51353
711.72590	0.83895
709.79710	1.20047
707.86831	1.57171
705.93951	1.87327
704.01072	2.00000
702.08192	1.93562
700.15312	1.75583
698.22433	1.53786
696.29553	1.32262
694.36673	1.12643
692.43794	0.95690
690.50914	0.83427
688.58034	0.80918
686.65155	0.91698
684.72275	1.07771
682.79395	1.12055
680.86516	0.97978
678.93636	0.75590
677.00756	0.56114
675.07877	0.44255
673.14997	0.43055
671.22118	0.59047
669.29238	1.00207
667.36358	1.50041
665.43479	1.68781
663.50599	1.56995
661.57719	1.34372
659.64840	1.14110
657.71960	0.99471
655.79080	0.88959
653.86201	0.80764
651.93321	0.74100
650.00441	0.68635
648.07562	0.64062
646.14682	0.60161
644.21802	0.56826
642.28923	0.53942
640.36043	0.51392
638.43163	0.49129
636.50284	0.47096
634.57404	0.45250
632.64525	0.43570
630.71645	0.42019
628.78765	0.40505
626.85886	0.38914
624.93006	0.37326
623.00126	0.35896
621.07247	0.35195
619.14367	0.35955
617.21487	0.36836
615.28608	0.35634
613.35728	0.32898
611.42848	0.30493
609.49969	0.28792
607.57089	0.27463
605.64209	0.26341
603.71330	0.25306
601.78450	0.24290
599.85571	0.23348
597.92691	0.22502
595.99811	0.21561
594.06932	0.20480
592.14052	0.19429
590.21172	0.18531
588.28293	0.17633
586.35413	0.16668
584.42533	0.15757
582.49654	0.14815
580.56774	0.13848
578.63894	0.12962
576.71015	0.12143
574.78135	0.11490
572.85255	0.11090
570.92376	0.11078
568.99496	0.11795
567.06617	0.13752
565.13737	0.17630
563.20857	0.24373
561.27978	0.34815
559.35098	0.48733
557.42218	0.64348
555.49339	0.78935
553.56459	0.90128
551.63579	0.97054
549.70700	1.00539
547.77820	1.02075
545.84940	1.02755
543.92061	1.02908
541.99181	1.02312
540.06301	1.00659
538.13422	0.97702
536.20542	0.93546
534.27663	0.88664
532.34783	0.83511
530.41903	0.78391
528.49024	0.73498
526.56144	0.69094
524.63264	0.65544
522.70385	0.62631
520.77505	0.59893
518.84625	0.57262
516.91746	0.54828
514.98866	0.52588
513.05986	0.50387
511.13107	0.48139
509.20227	0.45842
507.27347	0.43560
505.34468	0.41445
503.41588	0.39440
501.48708	0.37662
499.55829	0.36156
497.62949	0.34646
495.70070	0.33055
493.77190	0.31407
491.84310	0.29866
489.91431	0.28575
487.98551	0.27362
486.05671	0.26024
484.12792	0.24686
482.19912	0.23596
480.27032	0.22679
478.34153	0.21788
476.41273	0.20894
474.48393	0.19786
472.55514	0.18641
470.62634	0.17946
468.69754	0.17446
466.76875	0.16854
464.83995	0.16162
462.91116	0.15379
460.98236	0.14565
459.05356	0.13730
457.12477	0.13299
455.19597	0.13124
453.26717	0.12583
451.33838	0.12050
449.40958	0.11751
447.48078	0.11515
445.55199	0.11381
443.62319	0.11506
441.69439	0.12146
439.76560	0.13238
437.83680	0.14899
435.90800	0.18018
433.97921	0.22508
432.05041	0.26270
430.12162	0.27043
428.19282	0.24385
426.26402	0.19940
424.33523	0.15815
422.40643	0.12799
420.47763	0.10293
418.54884	0.08600
416.62004	0.08195
414.69124	0.08029
412.76245	0.07655
410.83365	0.07216
408.90485	0.06780
406.97606	0.06565
405.04726	0.06482
403.11846	0.05780
401.18967	0.03630
399.26087	0.00302
