3500.86373	0.00887
3498.93519	0.00459
3497.00664	0.00323
3495.07810	0.00671
3493.14955	0.00890
3491.22100	0.00654
3489.29246	0.00357
3487.36391	0.00334
3485.43537	0.00206
3483.50682	0.00000
3481.57828	0.00152
3479.64973	0.00390
3477.72118	0.00598
3475.79264	0.00772
3473.86409	0.00661
3471.93555	0.00756
3470.00700	0.00558
3468.07845	0.01036
3466.14991	0.01032
3464.22136	0.00505
3462.29282	0.00750
3460.36427	0.01357
3458.43572	0.01389
3456.50718	0.01334
3454.57863	0.01266
3452.65009	0.01358
3450.72154	0.01792
3448.79300	0.01914
3446.86445	0.01803
3444.93590	0.01805
3443.00736	0.01745
3441.07881	0.01603
3439.15027	0.01750
3437.22172	0.02160
3435.29317	0.02437
3433.36463	0.02569
3431.43608	0.02759
3429.50754	0.02993
3427.57899	0.03074
3425.65044	0.03057
3423.72190	0.03022
3421.79335	0.02875
3419.86481	0.02575
3417.93626	0.02229
3416.00771	0.02054
3414.07917	0.02239
3412.15062	0.02562
3410.22208	0.02620
3408.29353	0.02468
3406.36499	0.02383
3404.43644	0.02341
3402.50789	0.02065
3400.57935	0.01563
3398.65080	0.01279
3396.72226	0.01553
3394.79371	0.02116
3392.86516	0.02550
3390.93662	0.02903
3389.00807	0.03230
3387.07953	0.03255
3385.15098	0.03152
3383.22243	0.03369
3381.29389	0.03905
3379.36534	0.04515
3377.43680	0.05046
3375.50825	0.05394
3373.57971	0.05597
3371.65116	0.05713
3369.72261	0.05735
3367.79407	0.05911
3365.86552	0.06734
3363.93698	0.08062
3362.00843	0.09210
3360.07988	0.09836
3358.15134	0.10205
3356.22279	0.10555
3354.29425	0.10782
3352.36570	0.10830
3350.43715	0.11000
3348.50861	0.11378
3346.58006	0.11605
3344.65152	0.11607
3342.72297	0.11644
3340.79442	0.11574
3338.86588	0.11228
3336.93733	0.11011
3335.00879	0.11085
3333.08024	0.10908
3331.15170	0.10374
3329.22315	0.10230
3327.29460	0.10855
3325.36606	0.11758
3323.43751	0.12201
3321.50897	0.11864
3319.58042	0.11293
3317.65187	0.11191
3315.72333	0.11321
3313.79478	0.11030
3311.86624	0.10491
3309.93769	0.10319
3308.00914	0.10516
3306.08060	0.10590
3304.15205	0.10346
3302.22351	0.09962
3300.29496	0.09529
3298.36642	0.08975
3296.43787	0.08333
3294.50932	0.07741
3292.58078	0.07212
3290.65223	0.06720
3288.72369	0.06521
3286.79514	0.06819
3284.86659	0.07232
3282.93805	0.07399
3281.00950	0.07437
3279.08096	0.07556
3277.15241	0.07800
3275.22386	0.08062
3273.29532	0.08197
3271.36677	0.08156
3269.43823	0.08111
3267.50968	0.08187
3265.58113	0.08269
3263.65259	0.08266
3261.72404	0.08358
3259.79550	0.08849
3257.86695	0.09766
3255.93841	0.10761
3254.00986	0.11337
3252.08131	0.11289
3250.15277	0.10834
3248.22422	0.10602
3246.29568	0.11174
3244.36713	0.12159
3242.43858	0.12636
3240.51004	0.12445
3238.58149	0.12036
3236.65295	0.11695
3234.72440	0.11458
3232.79585	0.11201
3230.86731	0.10861
3228.93876	0.10598
3227.01022	0.10400
3225.08167	0.09974
3223.15313	0.09333
3221.22458	0.08848
3219.29603	0.08754
3217.36749	0.08940
3215.43894	0.09038
3213.51040	0.08880
3211.58185	0.08522
3209.65330	0.07858
3207.72476	0.06809
3205.79621	0.05879
3203.86767	0.05518
3201.93912	0.05494
3200.01057	0.05537
3198.08203	0.05572
3196.15348	0.05351
3194.22494	0.04655
3192.29639	0.03775
3190.36784	0.03180
3188.43930	0.03110
3186.51075	0.03404
3184.58221	0.03670
3182.65366	0.03764
3180.72512	0.03892
3178.79657	0.03947
3176.86802	0.03716
3174.93948	0.03371
3173.01093	0.03092
3171.08239	0.02810
3169.15384	0.02412
3167.22529	0.02009
3165.29675	0.01767
3163.36820	0.01906
3161.43966	0.02283
3159.51111	0.02665
3157.58256	0.02872
3155.65402	0.02892
3153.72547	0.02967
3151.79693	0.03139
3149.86838	0.03124
3147.93983	0.02799
3146.01129	0.02360
3144.08274	0.02055
3142.15420	0.02004
3140.22565	0.02170
3138.29711	0.02384
3136.36856	0.02555
3134.44001	0.02487
3132.51147	0.02179
3130.58292	0.02035
3128.65438	0.02094
3126.72583	0.02074
3124.79728	0.01931
3122.86874	0.01895
3120.94019	0.02064
3119.01165	0.02228
3117.08310	0.02219
3115.15455	0.02053
3113.22601	0.01965
3111.29746	0.02052
3109.36892	0.02401
3107.44037	0.02598
3105.51183	0.02164
3103.58328	0.01352
3101.65473	0.00727
3099.72619	0.00690
3097.79764	0.01051
3095.86910	0.01460
3093.94055	0.01520
3092.01200	0.01115
3090.08346	0.00659
3088.15491	0.00412
3086.22637	0.00411
3084.29782	0.00547
3082.36927	0.00823
3080.44073	0.01047
3078.51218	0.01179
3076.58364	0.01299
3074.65509	0.01229
3072.72654	0.01060
3070.79800	0.01078
3068.86945	0.01499
3066.94091	0.02003
3065.01236	0.02026
3063.08382	0.01753
3061.15527	0.01409
3059.22672	0.01097
3057.29818	0.00893
3055.36963	0.00635
3053.44109	0.00688
3051.51254	0.00998
3049.58399	0.01328
3047.65545	0.01394
3045.72690	0.01166
3043.79836	0.00807
3041.86981	0.00656
3039.94126	0.00896
3038.01272	0.01099
3036.08417	0.01080
3034.15563	0.00916
3032.22708	0.01001
3030.29854	0.01304
3028.36999	0.01503
3026.44144	0.01462
3024.51290	0.01594
3022.58435	0.01854
3020.65581	0.01882
3018.72726	0.01574
3016.79871	0.00988
3014.87017	0.00672
3012.94162	0.00657
3011.01308	0.00593
3009.08453	0.00555
3007.15598	0.00531
3005.22744	0.00789
3003.29889	0.01271
3001.37035	0.01839
2999.44180	0.01984
2997.51325	0.01584
2995.58471	0.01099
2993.65616	0.01123
2991.72762	0.01388
2989.79907	0.01239
2987.87053	0.00759
2985.94198	0.01246
2984.01343	0.01944
2982.08489	0.02190
2980.15634	0.02024
2978.22780	0.01480
2976.29925	0.00954
2974.37070	0.00961
2972.44216	0.01252
2970.51361	0.01279
2968.58507	0.01011
2966.65652	0.00982
2964.72797	0.00673
2962.79943	0.00547
2960.87088	0.00801
2958.94234	0.00990
2957.01379	0.00932
2955.08525	0.00935
2953.15670	0.01230
2951.22815	0.01586
2949.29961	0.01826
2947.37106	0.01610
2945.44252	0.01034
2943.51397	0.00909
2941.58542	0.01149
2939.65688	0.01137
2937.72833	0.00923
2935.79979	0.00682
2933.87124	0.00614
2931.94269	0.00641
2930.01415	0.00327
2928.08560	0.00411
2926.15706	0.01145
2924.22851	0.01367
2922.29996	0.01471
2920.37142	0.01601
2918.44287	0.01652
2916.51433	0.01623
2914.58578	0.01526
2912.65724	0.01205
2910.72869	0.00901
2908.80014	0.00997
2906.87160	0.01177
2904.94305	0.01242
2903.01451	0.01031
2901.08596	0.00978
2899.15741	0.01331
2897.22887	0.01876
2895.30032	0.02043
2893.37178	0.01468
2891.44323	0.00674
2889.51468	0.00317
2887.58614	0.00425
2885.65759	0.00178
2883.72905	0.00436
2881.80050	0.00729
2879.87196	0.00506
2877.94341	0.00256
2876.01486	0.00592
2874.08632	0.00795
2872.15777	0.00702
2870.22923	0.00291
2868.30068	0.00639
2866.37213	0.01275
2864.44359	0.01289
2862.51504	0.01193
2860.58650	0.01251
2858.65795	0.01168
2856.72940	0.00917
2854.80086	0.00664
2852.87231	0.00760
2850.94377	0.00884
2849.01522	0.01021
2847.08667	0.01244
2845.15813	0.01345
2843.22958	0.01096
2841.30104	0.00763
2839.37249	0.00660
2837.44395	0.00762
2835.51540	0.01017
2833.58685	0.01238
2831.65831	0.01249
2829.72976	0.01260
2827.80122	0.01345
2825.87267	0.01325
2823.94412	0.01040
2822.01558	0.00681
2820.08703	0.00565
2818.15849	0.00800
2816.22994	0.00830
2814.30139	0.00534
2812.37285	0.00324
2810.44430	0.00262
2808.51576	0.00276
2806.58721	0.00347
2804.65867	0.01178
2802.73012	0.02000
2800.80157	0.02241
2798.87303	0.01880
2796.94448	0.01037
2795.01594	0.00173
2793.08739	0.00163
2791.15884	0.00271
2789.23030	0.00444
2787.30175	0.00538
2785.37321	0.00538
2783.44466	0.00770
2781.51611	0.01243
2779.58757	0.01536
2777.65902	0.01466
2775.73048	0.01214
2773.80193	0.01099
2771.87338	0.01264
2769.94484	0.01531
2768.01629	0.01440
2766.08775	0.01103
2764.15920	0.00985
2762.23066	0.01055
2760.30211	0.01098
2758.37356	0.01022
2756.44502	0.00877
2754.51647	0.00721
2752.58793	0.00577
2750.65938	0.00493
2748.73083	0.00643
2746.80229	0.01077
2744.87374	0.01509
2742.94520	0.01660
2741.01665	0.01548
2739.08810	0.01324
2737.15956	0.01119
2735.23101	0.01087
2733.30247	0.01272
2731.37392	0.01502
2729.44538	0.01500
2727.51683	0.01247
2725.58828	0.01219
2723.65974	0.01485
2721.73119	0.01689
2719.80265	0.01816
2717.87410	0.01791
2715.94555	0.01492
2714.01701	0.00994
2712.08846	0.00603
2710.15992	0.00879
2708.23137	0.01373
2706.30282	0.01614
2704.37428	0.01681
2702.44573	0.01852
2700.51719	0.01937
2698.58864	0.01660
2696.66009	0.01111
2694.73155	0.00994
2692.80300	0.01208
2690.87446	0.01303
2688.94591	0.01299
2687.01737	0.01115
2685.08882	0.00760
2683.16027	0.00498
2681.23173	0.00608
2679.30318	0.00741
2677.37464	0.00694
2675.44609	0.00821
2673.51754	0.01160
2671.58900	0.01411
2669.66045	0.01497
2667.73191	0.01534
2665.80336	0.01513
2663.87481	0.01397
2661.94627	0.01410
2660.01772	0.01452
2658.08918	0.01392
2656.16063	0.01494
2654.23208	0.01778
2652.30354	0.01951
2650.37499	0.01757
2648.44645	0.01569
2646.51790	0.01746
2644.58936	0.01869
2642.66081	0.01669
2640.73226	0.01269
2638.80372	0.01039
2636.87517	0.00809
2634.94663	0.00584
2633.01808	0.00800
2631.08953	0.01119
2629.16099	0.01077
2627.23244	0.00988
2625.30390	0.00928
2623.37535	0.00948
2621.44680	0.01172
2619.51826	0.01405
2617.58971	0.01580
2615.66117	0.01594
2613.73262	0.01469
2611.80408	0.01268
2609.87553	0.00815
2607.94698	0.00457
2606.01844	0.00675
2604.08989	0.01063
2602.16135	0.01159
2600.23280	0.01162
2598.30425	0.01302
2596.37571	0.01367
2594.44716	0.01059
2592.51862	0.00735
2590.59007	0.00720
2588.66152	0.00746
2586.73298	0.00459
2584.80443	0.00223
2582.87589	0.00150
2580.94734	0.00263
2579.01879	0.00369
2577.09025	0.01156
2575.16170	0.01696
2573.23316	0.01680
2571.30461	0.01379
2569.37607	0.01237
2567.44752	0.01458
2565.51897	0.01627
2563.59043	0.01267
2561.66188	0.00853
2559.73334	0.00762
2557.80479	0.00998
2555.87624	0.01143
2553.94770	0.00940
2552.01915	0.00745
2550.09061	0.00810
2548.16206	0.00942
2546.23351	0.00971
2544.30497	0.01189
2542.37642	0.01381
2540.44788	0.01399
2538.51933	0.01183
2536.59079	0.00991
2534.66224	0.01166
2532.73369	0.01716
2530.80515	0.02397
2528.87660	0.02901
2526.94806	0.02995
2525.01951	0.02861
2523.09096	0.02559
2521.16242	0.01995
2519.23387	0.01162
2517.30533	0.00375
2515.37678	0.00570
2513.44823	0.01235
2511.51969	0.01607
2509.59114	0.01444
2507.66260	0.01000
2505.73405	0.00713
2503.80550	0.00619
2501.87696	0.00780
2499.94841	0.01115
2498.01987	0.01215
2496.09132	0.01190
2494.16278	0.01196
2492.23423	0.01152
2490.30568	0.01002
2488.37714	0.00891
2486.44859	0.01010
2484.52005	0.01295
2482.59150	0.01632
2480.66295	0.01888
2478.73441	0.01964
2476.80586	0.01957
2474.87732	0.02029
2472.94877	0.02055
2471.02022	0.01844
2469.09168	0.01657
2467.16313	0.01772
2465.23459	0.01956
2463.30604	0.01864
2461.37750	0.01504
2459.44895	0.01270
2457.52040	0.01521
2455.59186	0.02112
2453.66331	0.02490
2451.73477	0.02389
2449.80622	0.02167
2447.87767	0.02184
2445.94913	0.02235
2444.02058	0.02107
2442.09204	0.02040
2440.16349	0.02024
2438.23494	0.01947
2436.30640	0.02025
2434.37785	0.02025
2432.44931	0.01664
2430.52076	0.01495
2428.59221	0.02157
2426.66367	0.03091
2424.73512	0.03679
2422.80658	0.03545
2420.87803	0.03124
2418.94949	0.02803
2417.02094	0.02474
2415.09239	0.02122
2413.16385	0.01909
2411.23530	0.01865
2409.30676	0.01994
2407.37821	0.02256
2405.44966	0.02310
2403.52112	0.02083
2401.59257	0.02008
2399.66403	0.01966
2397.73548	0.01700
2395.80693	0.01362
2393.87839	0.01263
2391.94984	0.01420
2390.02130	0.01816
2388.09275	0.02121
2386.16421	0.02199
2384.23566	0.02209
2382.30711	0.02289
2380.37857	0.02485
2378.45002	0.02762
2376.52148	0.02878
2374.59293	0.02605
2372.66438	0.02141
2370.73584	0.01967
2368.80729	0.02173
2366.87875	0.02642
2364.95020	0.03264
2363.02165	0.03640
2361.09311	0.03341
2359.16456	0.02559
2357.23602	0.01931
2355.30747	0.01620
2353.37892	0.01629
2351.45038	0.01649
2349.52183	0.01780
2347.59329	0.02121
2345.66474	0.02445
2343.73620	0.02547
2341.80765	0.02340
2339.87910	0.02123
2337.95056	0.01994
2336.02201	0.01833
2334.09347	0.01692
2332.16492	0.01808
2330.23637	0.02153
2328.30783	0.02420
2326.37928	0.02525
2324.45074	0.02673
2322.52219	0.02930
2320.59364	0.03056
2318.66510	0.02903
2316.73655	0.02788
2314.80801	0.02669
2312.87946	0.02447
2310.95092	0.02510
2309.02237	0.02771
2307.09382	0.02655
2305.16528	0.02346
2303.23673	0.02350
2301.30819	0.02536
2299.37964	0.02584
2297.45109	0.02368
2295.52255	0.02183
2293.59400	0.02236
2291.66546	0.02293
2289.73691	0.02358
2287.80836	0.02589
2285.87982	0.02706
2283.95127	0.02414
2282.02273	0.01917
2280.09418	0.01507
2278.16563	0.01337
2276.23709	0.01581
2274.30854	0.02239
2272.38000	0.02833
2270.45145	0.02994
2268.52291	0.02839
2266.59436	0.02549
2264.66581	0.02311
2262.73727	0.02430
2260.80872	0.02796
2258.88018	0.02948
2256.95163	0.02853
2255.02308	0.02709
2253.09454	0.02582
2251.16599	0.02586
2249.23745	0.02682
2247.30890	0.02653
2245.38035	0.02697
2243.45181	0.03080
2241.52326	0.03499
2239.59472	0.03487
2237.66617	0.02996
2235.73763	0.02248
2233.80908	0.01503
2231.88053	0.01198
2229.95199	0.01390
2228.02344	0.01626
2226.09490	0.01826
2224.16635	0.02005
2222.23780	0.02140
2220.30926	0.02346
2218.38071	0.02861
2216.45217	0.03427
2214.52362	0.03670
2212.59507	0.03712
2210.66653	0.03710
2208.73798	0.03657
2206.80944	0.03488
2204.88089	0.03233
2202.95234	0.03125
2201.02380	0.03076
2199.09525	0.03012
2197.16671	0.03006
2195.23816	0.03040
2193.30962	0.03001
2191.38107	0.02868
2189.45252	0.02974
2187.52398	0.03003
2185.59543	0.02683
2183.66689	0.02366
2181.73834	0.02325
2179.80979	0.02391
2177.88125	0.02366
2175.95270	0.02231
2174.02416	0.02219
2172.09561	0.02403
2170.16706	0.02597
2168.23852	0.02691
2166.30997	0.02667
2164.38143	0.02434
2162.45288	0.02037
2160.52433	0.01831
2158.59579	0.02133
2156.66724	0.02834
2154.73870	0.03293
2152.81015	0.03292
2150.88161	0.03301
2148.95306	0.03286
2147.02451	0.03218
2145.09597	0.02965
2143.16742	0.02670
2141.23888	0.02592
2139.31033	0.02759
2137.38178	0.03001
2135.45324	0.03181
2133.52469	0.03036
2131.59615	0.02512
2129.66760	0.02052
2127.73905	0.02013
2125.81051	0.02282
2123.88196	0.02394
2121.95342	0.02404
2120.02487	0.02663
2118.09633	0.03014
2116.16778	0.03223
2114.23923	0.03366
2112.31069	0.03377
2110.38214	0.03178
2108.45360	0.03097
2106.52505	0.03386
2104.59650	0.03666
2102.66796	0.03509
2100.73941	0.03087
2098.81087	0.02884
2096.88232	0.02981
2094.95377	0.03116
2093.02523	0.03150
2091.09668	0.03064
2089.16814	0.03080
2087.23959	0.03186
2085.31104	0.03112
2083.38250	0.02862
2081.45395	0.02693
2079.52541	0.02662
2077.59686	0.02664
2075.66832	0.02574
2073.73977	0.02143
2071.81122	0.01604
2069.88268	0.01417
2067.95413	0.01856
2066.02559	0.02604
2064.09704	0.03105
2062.16849	0.03309
2060.23995	0.03415
2058.31140	0.03365
2056.38286	0.02826
2054.45431	0.02109
2052.52576	0.02087
2050.59722	0.02936
2048.66867	0.03857
2046.74013	0.04112
2044.81158	0.03744
2042.88304	0.03269
2040.95449	0.03151
2039.02594	0.03451
2037.09740	0.03817
2035.16885	0.03884
2033.24031	0.03534
2031.31176	0.02991
2029.38321	0.02580
2027.45467	0.02422
2025.52612	0.02594
2023.59758	0.03142
2021.66903	0.03728
2019.74048	0.03926
2017.81194	0.03694
2015.88339	0.03147
2013.95485	0.02563
2012.02630	0.02476
2010.09775	0.02762
2008.16921	0.03082
2006.24066	0.03407
2004.31212	0.03622
2002.38357	0.03789
2000.45503	0.03876
1998.52648	0.03680
1996.59793	0.03118
1994.66939	0.02359
1992.74084	0.01747
1990.81230	0.01645
1988.88375	0.01918
1986.95520	0.02212
1985.02666	0.02370
1983.09811	0.02374
1981.16957	0.02273
1979.24102	0.02125
1977.31247	0.02073
1975.38393	0.02377
1973.45538	0.02879
1971.52684	0.03280
1969.59829	0.03319
1967.66975	0.03029
1965.74120	0.02772
1963.81265	0.02856
1961.88411	0.03042
1959.95556	0.02935
1958.02702	0.02668
1956.09847	0.02621
1954.16992	0.02801
1952.24138	0.02884
1950.31283	0.02824
1948.38429	0.02711
1946.45574	0.02654
1944.52719	0.02722
1942.59865	0.02847
1940.67010	0.02850
1938.74156	0.02738
1936.81301	0.02609
1934.88446	0.02580
1932.95592	0.02735
1931.02737	0.03138
1929.09883	0.03502
1927.17028	0.03647
1925.24174	0.03688
1923.31319	0.03690
1921.38464	0.03654
1919.45610	0.03692
1917.52755	0.03705
1915.59901	0.03508
1913.67046	0.03310
1911.74191	0.03339
1909.81337	0.03454
1907.88482	0.03450
1905.95628	0.03394
1904.02773	0.03408
1902.09918	0.03517
1900.17064	0.03614
1898.24209	0.03652
1896.31355	0.03613
1894.38500	0.03592
1892.45646	0.03682
1890.52791	0.03752
1888.59936	0.03673
1886.67082	0.03578
1884.74227	0.03657
1882.81373	0.03743
1880.88518	0.03598
1878.95663	0.03365
1877.02809	0.03235
1875.09954	0.03173
1873.17100	0.03165
1871.24245	0.03198
1869.31390	0.03179
1867.38536	0.03262
1865.45681	0.03541
1863.52827	0.03580
1861.59972	0.03160
1859.67117	0.02700
1857.74263	0.02655
1855.81408	0.03006
1853.88554	0.03425
1851.95699	0.03527
1850.02845	0.03306
1848.09990	0.03208
1846.17135	0.03262
1844.24281	0.03321
1842.31426	0.03352
1840.38572	0.03565
1838.45717	0.04014
1836.52862	0.04398
1834.60008	0.04412
1832.67153	0.03936
1830.74299	0.03253
1828.81444	0.02928
1826.88589	0.03175
1824.95735	0.03538
1823.02880	0.03533
1821.10026	0.03330
1819.17171	0.03342
1817.24317	0.03516
1815.31462	0.03469
1813.38607	0.03278
1811.45753	0.03179
1809.52898	0.03119
1807.60044	0.02890
1805.67189	0.02569
1803.74334	0.02473
1801.81480	0.02628
1799.88625	0.02792
1797.95771	0.02954
1796.02916	0.03171
1794.10061	0.03361
1792.17207	0.03461
1790.24352	0.03424
1788.31498	0.03296
1786.38643	0.03238
1784.45788	0.03307
1782.52934	0.03388
1780.60079	0.03272
1778.67225	0.03048
1776.74370	0.02908
1774.81516	0.02955
1772.88661	0.03138
1770.95806	0.03415
1769.02952	0.03764
1767.10097	0.03833
1765.17243	0.03505
1763.24388	0.03110
1761.31533	0.03015
1759.38679	0.03208
1757.45824	0.03329
1755.52970	0.03266
1753.60115	0.03356
1751.67260	0.03750
1749.74406	0.04181
1747.81551	0.04229
1745.88697	0.03873
1743.95842	0.03606
1742.02988	0.03560
1740.10133	0.03595
1738.17278	0.03621
1736.24424	0.03648
1734.31569	0.03699
1732.38715	0.03564
1730.45860	0.03234
1728.53005	0.02957
1726.60151	0.02911
1724.67296	0.03055
1722.74442	0.03125
1720.81587	0.03057
1718.88732	0.02973
1716.95878	0.03118
1715.03023	0.03348
1713.10169	0.03500
1711.17314	0.03497
1709.24459	0.03445
1707.31605	0.03553
1705.38750	0.04023
1703.45896	0.04634
1701.53041	0.04936
1699.60187	0.04947
1697.67332	0.05013
1695.74477	0.05181
1693.81623	0.05245
1691.88768	0.05154
1689.95914	0.04906
1688.03059	0.04528
1686.10204	0.04342
1684.17350	0.04597
1682.24495	0.05108
1680.31641	0.05516
1678.38786	0.05661
1676.45931	0.05625
1674.53077	0.05486
1672.60222	0.05239
1670.67368	0.05051
1668.74513	0.05119
1666.81658	0.05382
1664.88804	0.05606
1662.95949	0.05901
1661.03095	0.06605
1659.10240	0.07745
1657.17386	0.09179
1655.24531	0.11173
1653.31676	0.14185
1651.38822	0.18121
1649.45967	0.21786
1647.53113	0.23376
1645.60258	0.22229
1643.67403	0.19478
1641.74549	0.16523
1639.81694	0.14034
1637.88840	0.12276
1635.95985	0.11295
1634.03130	0.10900
1632.10276	0.10913
1630.17421	0.11143
1628.24567	0.11444
1626.31712	0.11943
1624.38858	0.12530
1622.46003	0.12598
1620.53148	0.11980
1618.60294	0.11254
1616.67439	0.10760
1614.74585	0.10205
1612.81730	0.09442
1610.88875	0.08836
1608.96021	0.08559
1607.03166	0.08361
1605.10312	0.08201
1603.17457	0.08185
1601.24602	0.08056
1599.31748	0.07668
1597.38893	0.07331
1595.46039	0.07133
1593.53184	0.06896
1591.60329	0.06834
1589.67475	0.07294
1587.74620	0.08157
1585.81766	0.09043
1583.88911	0.09777
1581.96057	0.10409
1580.03202	0.10941
1578.10347	0.11138
1576.17493	0.10736
1574.24638	0.09867
1572.31784	0.08913
1570.38929	0.08189
1568.46074	0.07883
1566.53220	0.07950
1564.60365	0.08173
1562.67511	0.08410
1560.74656	0.08682
1558.81801	0.09088
1556.88947	0.09666
1554.96092	0.10388
1553.03238	0.11346
1551.10383	0.12755
1549.17529	0.14535
1547.24674	0.16266
1545.31819	0.17878
1543.38965	0.19375
1541.46110	0.20313
1539.53256	0.20366
1537.60401	0.19641
1535.67546	0.18278
1533.74692	0.16364
1531.81837	0.14046
1529.88983	0.11650
1527.96128	0.09653
1526.03273	0.08279
1524.10419	0.07443
1522.17564	0.07018
1520.24710	0.06772
1518.31855	0.06317
1516.39000	0.05637
1514.46146	0.05229
1512.53291	0.05195
1510.60437	0.05071
1508.67582	0.04708
1506.74728	0.04446
1504.81873	0.04509
1502.89018	0.04645
1500.96164	0.04583
1499.03309	0.04377
1497.10455	0.04194
1495.17600	0.04052
1493.24745	0.03942
1491.31891	0.04097
1489.39036	0.04522
1487.46182	0.04865
1485.53327	0.04903
1483.60472	0.04875
1481.67618	0.04950
1479.74763	0.05168
1477.81909	0.05640
1475.89054	0.06249
1473.96200	0.06711
1472.03345	0.07014
1470.10490	0.07284
1468.17636	0.07542
1466.24781	0.07705
1464.31927	0.07541
1462.39072	0.06952
1460.46217	0.06254
1458.53363	0.05842
1456.60508	0.05658
1454.67654	0.05412
1452.74799	0.05048
1450.81944	0.04757
1448.89090	0.04504
1446.96235	0.04149
1445.03381	0.03681
1443.10526	0.03218
1441.17671	0.02953
1439.24817	0.03012
1437.31962	0.03432
1435.39108	0.03973
1433.46253	0.04222
1431.53399	0.04110
1429.60544	0.03832
1427.67689	0.03579
1425.74835	0.03469
1423.81980	0.03446
1421.89126	0.03386
1419.96271	0.03439
1418.03416	0.03761
1416.10562	0.04059
1414.17707	0.04017
1412.24853	0.03873
1410.31998	0.03912
1408.39143	0.04022
1406.46289	0.03951
1404.53434	0.03751
1402.60580	0.03830
1400.67725	0.04304
1398.74871	0.04775
1396.82016	0.04931
1394.89161	0.04747
1392.96307	0.04370
1391.03452	0.04191
1389.10598	0.04456
1387.17743	0.04780
1385.24888	0.04676
1383.32034	0.04223
1381.39179	0.03874
1379.46325	0.03939
1377.53470	0.04247
1375.60615	0.04368
1373.67761	0.04169
1371.74906	0.03821
1369.82052	0.03632
1367.89197	0.03670
1365.96342	0.03709
1364.03488	0.03757
1362.10633	0.03902
1360.17779	0.03880
1358.24924	0.03636
1356.32070	0.03325
1354.39215	0.02898
1352.46360	0.02511
1350.53506	0.02469
1348.60651	0.02819
1346.67797	0.03193
1344.74942	0.03341
1342.82087	0.03363
1340.89233	0.03158
1338.96378	0.02758
1337.03524	0.02539
1335.10669	0.02673
1333.17814	0.03015
1331.24960	0.03305
1329.32105	0.03495
1327.39251	0.03777
1325.46396	0.03932
1323.53542	0.03700
1321.60687	0.03388
1319.67832	0.03439
1317.74978	0.03747
1315.82123	0.03976
1313.89269	0.04009
1311.96414	0.03928
1310.03559	0.03854
1308.10705	0.03967
1306.17850	0.04210
1304.24996	0.04272
1302.32141	0.04217
1300.39286	0.04261
1298.46432	0.04432
1296.53577	0.04487
1294.60723	0.04171
1292.67868	0.03756
1290.75013	0.03656
1288.82159	0.03807
1286.89304	0.03976
1284.96450	0.04142
1283.03595	0.04227
1281.10741	0.03934
1279.17886	0.03389
1277.25031	0.03038
1275.32177	0.03021
1273.39322	0.03219
1271.46468	0.03279
1269.53613	0.03269
1267.60758	0.03531
1265.67904	0.03927
1263.75049	0.04053
1261.82195	0.03978
1259.89340	0.04063
1257.96485	0.04296
1256.03631	0.04412
1254.10776	0.04350
1252.17922	0.04101
1250.25067	0.03897
1248.32213	0.04137
1246.39358	0.04554
1244.46503	0.04738
1242.53649	0.04536
1240.60794	0.04074
1238.67940	0.03705
1236.75085	0.03481
1234.82230	0.03273
1232.89376	0.03075
1230.96521	0.02963
1229.03667	0.02987
1227.10812	0.03127
1225.17957	0.03445
1223.25103	0.04104
1221.32248	0.04843
1219.39394	0.05107
1217.46539	0.04791
1215.53684	0.04510
1213.60830	0.04571
1211.67975	0.04731
1209.75121	0.05003
1207.82266	0.05365
1205.89412	0.05531
1203.96557	0.05413
1202.03702	0.05401
1200.10848	0.05866
1198.17993	0.06656
1196.25139	0.07214
1194.32284	0.07357
1192.39429	0.07461
1190.46575	0.07790
1188.53720	0.08259
1186.60866	0.08827
1184.68011	0.09601
1182.75156	0.10553
1180.82302	0.11584
1178.89447	0.12561
1176.96593	0.13101
1175.03738	0.12967
1173.10883	0.12551
1171.18029	0.12238
1169.25174	0.11802
1167.32320	0.11024
1165.39465	0.10188
1163.46611	0.09539
1161.53756	0.09059
1159.60901	0.08782
1157.68047	0.08781
1155.75192	0.08880
1153.82338	0.08746
1151.89483	0.08301
1149.96628	0.07676
1148.03774	0.07008
1146.10919	0.06436
1144.18065	0.05943
1142.25210	0.05424
1140.32355	0.05102
1138.39501	0.05195
1136.46646	0.05544
1134.53792	0.05832
1132.60937	0.05841
1130.68083	0.05646
1128.75228	0.05459
1126.82373	0.05293
1124.89519	0.05085
1122.96664	0.04981
1121.03810	0.05102
1119.10955	0.05312
1117.18100	0.05583
1115.25246	0.05915
1113.32391	0.06135
1111.39537	0.06122
1109.46682	0.05928
1107.53827	0.05634
1105.60973	0.05393
1103.68118	0.05407
1101.75264	0.05576
1099.82409	0.05645
1097.89554	0.05705
1095.96700	0.05880
1094.03845	0.05917
1092.10991	0.05673
1090.18136	0.05404
1088.25282	0.05350
1086.32427	0.05543
1084.39572	0.05912
1082.46718	0.06291
1080.53863	0.06513
1078.61009	0.06549
1076.68154	0.06574
1074.75299	0.06819
1072.82445	0.07197
1070.89590	0.07373
1068.96736	0.07302
1067.03881	0.07227
1065.11026	0.07346
1063.18172	0.07635
1061.25317	0.07876
1059.32463	0.07901
1057.39608	0.07723
1055.46754	0.07460
1053.53899	0.07351
1051.61044	0.07511
1049.68190	0.07622
1047.75335	0.07435
1045.82481	0.07184
1043.89626	0.07236
1041.96771	0.07829
1040.03917	0.08734
1038.11062	0.09397
1036.18208	0.09646
1034.25353	0.09820
1032.32498	0.10432
1030.39644	0.11736
1028.46789	0.13643
1026.53935	0.15939
1024.61080	0.18553
1022.68225	0.22193
1020.75371	0.28550
1018.82516	0.39828
1016.89662	0.59405
1014.96807	0.92243
1013.03953	1.38565
1011.11098	1.83050
1009.18243	2.00000
1007.25389	1.79112
1005.32534	1.36811
1003.39680	0.95720
1001.46825	0.65217
999.53970	0.44381
997.61116	0.30653
995.68261	0.22002
993.75407	0.16631
991.82552	0.13192
989.89697	0.10850
987.96843	0.09188
986.03988	0.08111
984.11134	0.07401
982.18279	0.06642
980.25425	0.05826
978.32570	0.05304
976.39715	0.05225
974.46861	0.05252
972.54006	0.05034
970.61152	0.04569
968.68297	0.04011
966.75442	0.03541
964.82588	0.03299
962.89733	0.03280
960.96879	0.03318
959.04024	0.03274
957.11169	0.03247
955.18315	0.03451
953.25460	0.03716
951.32606	0.03650
949.39751	0.03191
947.46896	0.02749
945.54042	0.02806
943.61187	0.03233
941.68333	0.03419
939.75478	0.03329
937.82624	0.03281
935.89769	0.03233
933.96914	0.03077
932.04060	0.02970
930.11205	0.03108
928.18351	0.03505
926.25496	0.03896
924.32641	0.03961
922.39787	0.03575
920.46932	0.02872
918.54078	0.02364
916.61223	0.02467
914.68368	0.02867
912.75514	0.03080
910.82659	0.03179
908.89805	0.03381
906.96950	0.03528
905.04096	0.03417
903.11241	0.03183
901.18386	0.02914
899.25532	0.02681
897.32677	0.02611
895.39823	0.02560
893.46968	0.02446
891.54113	0.02459
889.61259	0.02702
887.68404	0.02999
885.75550	0.03122
883.82695	0.03016
881.89840	0.02710
879.96986	0.02460
878.04131	0.02561
876.11277	0.02768
874.18422	0.02618
872.25567	0.02200
870.32713	0.01945
868.39858	0.02090
866.47004	0.02606
864.54149	0.03242
862.61295	0.03751
860.68440	0.03964
858.75585	0.03851
856.82731	0.03599
854.89876	0.03354
852.97022	0.03137
851.04167	0.03085
849.11312	0.03208
847.18458	0.03244
845.25603	0.03050
843.32749	0.02945
841.39894	0.03170
839.47039	0.03437
837.54185	0.03398
835.61330	0.03116
833.68476	0.02850
831.75621	0.02724
829.82767	0.02749
827.89912	0.02751
825.97057	0.02627
824.04203	0.02417
822.11348	0.02167
820.18494	0.02051
818.25639	0.02285
816.32784	0.02659
814.39930	0.02812
812.47075	0.02643
810.54221	0.02309
808.61366	0.02184
806.68511	0.02461
804.75657	0.02838
802.82802	0.03044
800.89948	0.02841
798.97093	0.02579
797.04238	0.02750
795.11384	0.03244
793.18529	0.03554
791.25675	0.03350
789.32820	0.02843
787.39966	0.02590
785.47111	0.02881
783.54256	0.03415
781.61402	0.03693
779.68547	0.03650
777.75693	0.03512
775.82838	0.03359
773.89983	0.03269
771.97129	0.03394
770.04274	0.03521
768.11420	0.03425
766.18565	0.03338
764.25710	0.03374
762.32856	0.03394
760.40001	0.03381
758.47147	0.03496
756.54292	0.03759
754.61438	0.03887
752.68583	0.03685
750.75728	0.03292
748.82874	0.03009
746.90019	0.03012
744.97165	0.03387
743.04310	0.03853
741.11455	0.03944
739.18601	0.03548
737.25746	0.03133
735.32892	0.03111
733.40037	0.03392
731.47182	0.03709
729.54328	0.03924
727.61473	0.03960
725.68619	0.03816
723.75764	0.03570
721.82909	0.03360
719.90055	0.03272
717.97200	0.03295
716.04346	0.03327
714.11491	0.03270
712.18637	0.03230
710.25782	0.03269
708.32927	0.03398
706.40073	0.03631
704.47218	0.03757
702.54364	0.03666
700.61509	0.03545
698.68654	0.03656
696.75800	0.03955
694.82945	0.04076
692.90091	0.03832
690.97236	0.03506
689.04381	0.03396
687.11527	0.03384
685.18672	0.03232
683.25818	0.03039
681.32963	0.03007
679.40108	0.03172
677.47254	0.03274
675.54399	0.03100
673.61545	0.02988
671.68690	0.03260
669.75836	0.03746
667.82981	0.04208
665.90126	0.04570
663.97272	0.04669
662.04417	0.04419
660.11563	0.03996
658.18708	0.03626
656.25853	0.03436
654.32999	0.03427
652.40144	0.03483
650.47290	0.03575
648.54435	0.03698
646.61580	0.03762
644.68726	0.03702
642.75871	0.03673
640.83017	0.03929
638.90162	0.04391
636.97308	0.04645
635.04453	0.04488
633.11598	0.04274
631.18744	0.04393
629.25889	0.04690
627.33035	0.04790
625.40180	0.04586
623.47325	0.04316
621.54471	0.04181
619.61616	0.04133
617.68762	0.04025
615.75907	0.03872
613.83052	0.03786
611.90198	0.03791
609.97343	0.03768
608.04489	0.03712
606.11634	0.03734
604.18779	0.03680
602.25925	0.03448
600.33070	0.03338
598.40216	0.03620
596.47361	0.04075
594.54507	0.04430
592.61652	0.04653
590.68797	0.04640
588.75943	0.04425
586.83088	0.04428
584.90234	0.04906
582.97379	0.05613
581.04524	0.06321
579.11670	0.06986
577.18815	0.07644
575.25961	0.08453
573.33106	0.09307
571.40251	0.09734
569.47397	0.09662
567.54542	0.09604
565.61688	0.09882
563.68833	0.10273
561.75979	0.10493
559.83124	0.10734
557.90269	0.11407
555.97415	0.12551
554.04560	0.14236
552.11706	0.17490
550.18851	0.23402
548.25996	0.30644
546.33142	0.35029
544.40287	0.33159
542.47433	0.26255
540.54578	0.18648
538.61723	0.13173
536.68869	0.09988
534.76014	0.08380
532.83160	0.07659
530.90305	0.07227
528.97450	0.06774
527.04596	0.06235
525.11741	0.05695
523.18887	0.05334
521.26032	0.05142
519.33178	0.05015
517.40323	0.05036
515.47468	0.05234
513.54614	0.05339
511.61759	0.05212
509.68905	0.05044
507.76050	0.04937
505.83195	0.04884
503.90341	0.04958
501.97486	0.05161
500.04632	0.05275
498.11777	0.05107
496.18922	0.04748
494.26068	0.04481
492.33213	0.04444
490.40359	0.04689
488.47504	0.05125
486.54650	0.05330
484.61795	0.05178
482.68940	0.05039
480.76086	0.05075
478.83231	0.05056
476.90377	0.04790
474.97522	0.04538
473.04667	0.04473
471.11813	0.04489
469.18958	0.04598
467.26104	0.04926
465.33249	0.05272
463.40394	0.05302
461.47540	0.05027
459.54685	0.04768
457.61831	0.04713
455.68976	0.04752
453.76121	0.04736
451.83267	0.04589
449.90412	0.04356
447.97558	0.04274
446.04703	0.04556
444.11849	0.05028
442.18994	0.05289
440.26139	0.05272
438.33285	0.05088
436.40430	0.04764
434.47576	0.04362
432.54721	0.04082
430.61866	0.04140
428.69012	0.04465
426.76157	0.04684
424.83303	0.04664
422.90448	0.04709
420.97593	0.04988
419.04739	0.05117
417.11884	0.04722
415.19030	0.04115
413.26175	0.03886
411.33321	0.04116
409.40466	0.04444
407.47611	0.04676
405.54757	0.04875
403.61902	0.05002
401.69048	0.04934
399.76193	0.04621
397.83338	0.04229
395.90484	0.04053
393.97629	0.04179
392.04775	0.04330
390.11920	0.04338
388.19065	0.04358
386.26211	0.04534
384.33356	0.04796
382.40502	0.05037
380.47647	0.05083
378.54792	0.04734
376.61938	0.04098
374.69083	0.03677
372.76229	0.03831
370.83374	0.04359
368.90520	0.04753
366.97665	0.04788
365.04810	0.04666
363.11956	0.04618
361.19101	0.04695
359.26247	0.04810
357.33392	0.04835
355.40537	0.04747
353.47683	0.04653
351.54828	0.04509
349.61974	0.04193
347.69119	0.03908
345.76264	0.03792
343.83410	0.03699
341.90555	0.03683
339.97701	0.03823
338.04846	0.03907
336.11992	0.03917
334.19137	0.04022
332.26282	0.04078
330.33428	0.03849
328.40573	0.03586
326.47719	0.03685
324.54864	0.04079
322.62009	0.04429
320.69155	0.04480
318.76300	0.04124
316.83446	0.03527
314.90591	0.03096
312.97736	0.03033
311.04882	0.03222
309.12027	0.03497
307.19173	0.03672
305.26318	0.03609
303.33463	0.03520
301.40609	0.03691
299.47754	0.03929
297.54900	0.04027
295.62045	0.04191
293.69191	0.04476
291.76336	0.04500
289.83481	0.04164
287.90627	0.03828
285.97772	0.03744
284.04918	0.03932
282.12063	0.04314
280.19208	0.04642
278.26354	0.04602
276.33499	0.04231
274.40645	0.03933
272.47790	0.03973
270.54935	0.04114
268.62081	0.04074
266.69226	0.03994
264.76372	0.03995
262.83517	0.04035
260.90663	0.04081
258.97808	0.04092
257.04953	0.04197
255.12099	0.04473
253.19244	0.04695
251.26390	0.04715
249.33535	0.04626
247.40680	0.04540
245.47826	0.04577
243.54971	0.04793
241.62117	0.05012
239.69262	0.04998
237.76407	0.04929
235.83553	0.05185
233.90698	0.05656
231.97844	0.05903
230.04989	0.05908
228.12134	0.06027
226.19280	0.06277
224.26425	0.06407
222.33571	0.06438
220.40716	0.06600
218.47862	0.06930
216.55007	0.07260
214.62152	0.07522
212.69298	0.07815
210.76443	0.08244
208.83589	0.08790
206.90734	0.09302
204.97879	0.09697
203.05025	0.10144
201.12170	0.10867
199.19316	0.11745
197.26461	0.12450
195.33606	0.13008
193.40752	0.13780
191.47897	0.14927
189.55043	0.16307
187.62188	0.17650
185.69333	0.18688
183.76479	0.19442
181.83624	0.20091
179.90770	0.20576
177.97915	0.20844
176.05061	0.21142
174.12206	0.21689
172.19351	0.22224
170.26497	0.22327
168.33642	0.22034
166.40788	0.21721
164.47933	0.21634
162.55078	0.21863
160.62224	0.22313
158.69369	0.22688
156.76515	0.22952
154.83660	0.23492
152.90805	0.24683
150.97951	0.26411
149.05096	0.28213
147.12242	0.30000
145.19387	0.32379
143.26533	0.36203
141.33678	0.41991
139.40823	0.49574
137.47969	0.58158
135.55114	0.66525
133.62260	0.72716
131.69405	0.74473
129.76550	0.71077
127.83696	0.64272
125.90841	0.56995
123.97987	0.51428
122.05132	0.47874
120.12277	0.45108
118.19423	0.41905
116.26568	0.38287
114.33714	0.35260
112.40859	0.33583
110.48004	0.33362
108.55150	0.34650
106.62295	0.37504
104.69441	0.41363
102.76586	0.44658
100.83732	0.45216
98.90877	0.41687
