3996.46631	0.00000
3994.53751	0.00149
3992.60871	0.00309
3990.67992	0.00476
3988.75112	0.00720
3986.82232	0.00950
3984.89353	0.01053
3982.96473	0.01149
3981.03594	0.01365
3979.10714	0.01564
3977.17834	0.01589
3975.24955	0.01583
3973.32075	0.01727
3971.39195	0.01969
3969.46316	0.02259
3967.53436	0.02567
3965.60556	0.02706
3963.67677	0.02566
3961.74797	0.02454
3959.81917	0.02634
3957.89038	0.02929
3955.96158	0.03150
3954.03278	0.03142
3952.10399	0.02742
3950.17519	0.02232
3948.24640	0.02318
3946.31760	0.02739
3944.38880	0.02759
3942.46001	0.03017
3940.53121	0.03978
3938.60241	0.04757
3936.67362	0.04735
3934.74482	0.03924
3932.81602	0.03060
3930.88723	0.03254
3928.95843	0.04056
3927.02963	0.04153
3925.10084	0.03862
3923.17204	0.04143
3921.24324	0.04382
3919.31445	0.04111
3917.38565	0.04367
3915.45686	0.05662
3913.52806	0.06965
3911.59926	0.07554
3909.67047	0.07287
3907.74167	0.05748
3905.81287	0.03108
3903.88408	0.01125
3901.95528	0.01149
3900.02648	0.02764
3898.09769	0.05150
3896.16889	0.06641
3894.24009	0.06229
3892.31130	0.05398
3890.38250	0.06063
3888.45370	0.06503
3886.52491	0.05559
3884.59611	0.04916
3882.66731	0.04802
3880.73852	0.05230
3878.80972	0.06898
3876.88093	0.07535
3874.95213	0.06255
3873.02333	0.04661
3871.09454	0.03844
3869.16574	0.04532
3867.23694	0.05427
3865.30815	0.05207
3863.37935	0.05750
3861.45055	0.07604
3859.52176	0.08452
3857.59296	0.07127
3855.66416	0.03710
3853.73537	0.01149
3851.80657	0.04127
3849.87777	0.08300
3847.94898	0.10263
3846.02018	0.09855
3844.09139	0.07895
3842.16259	0.05523
3840.23379	0.03516
3838.30500	0.03207
3836.37620	0.04939
3834.44740	0.06691
3832.51861	0.07872
3830.58981	0.08766
3828.66101	0.08965
3826.73222	0.08595
3824.80342	0.07613
3822.87462	0.05292
3820.94583	0.03795
3819.01703	0.04905
3817.08823	0.06287
3815.15944	0.08292
3813.23064	0.10580
3811.30185	0.11206
3809.37305	0.09807
3807.44425	0.07926
3805.51546	0.07026
3803.58666	0.05741
3801.65786	0.04802
3799.72907	0.06090
3797.80027	0.07701
3795.87147	0.09388
3793.94268	0.11276
3792.01388	0.12316
3790.08508	0.12445
3788.15629	0.11910
3786.22749	0.11053
3784.29869	0.10683
3782.36990	0.10410
3780.44110	0.09803
3778.51230	0.10281
3776.58351	0.11715
3774.65471	0.12205
3772.72592	0.11119
3770.79712	0.09460
3768.86832	0.08835
3766.93953	0.09141
3765.01073	0.09804
3763.08193	0.10087
3761.15314	0.08978
3759.22434	0.07683
3757.29554	0.07642
3755.36675	0.07097
3753.43795	0.04371
3751.50915	0.01223
3749.58036	0.01479
3747.65156	0.02714
3745.72276	0.02805
3743.79397	0.04057
3741.86517	0.06079
3739.93638	0.06251
3738.00758	0.03999
3736.07878	0.01149
3734.14999	0.01770
3732.22119	0.05616
3730.29239	0.08625
3728.36360	0.09162
3726.43480	0.08251
3724.50600	0.07665
3722.57721	0.08044
3720.64841	0.09119
3718.71961	0.10266
3716.79082	0.10522
3714.86202	0.09006
3712.93322	0.06079
3711.00443	0.05158
3709.07563	0.07801
3707.14684	0.10479
3705.21804	0.11153
3703.28924	0.10383
3701.36045	0.10319
3699.43165	0.11463
3697.50285	0.12179
3695.57406	0.11710
3693.64526	0.09792
3691.71646	0.06677
3689.78767	0.05123
3687.85887	0.07527
3685.93007	0.10604
3684.00128	0.11951
3682.07248	0.11563
3680.14368	0.09674
3678.21489	0.06432
3676.28609	0.03572
3674.35730	0.04358
3672.42850	0.05753
3670.49970	0.06127
3668.57091	0.08519
3666.64211	0.11715
3664.71331	0.13352
3662.78452	0.13682
3660.85572	0.13294
3658.92692	0.12133
3656.99813	0.10833
3655.06933	0.10281
3653.14053	0.08640
3651.21174	0.04411
3649.28294	0.01508
3647.35414	0.04768
3645.42535	0.09487
3643.49655	0.12102
3641.56775	0.13015
3639.63896	0.13327
3637.71016	0.13309
3635.78137	0.12808
3633.85257	0.11851
3631.92377	0.10021
3629.99498	0.07604
3628.06618	0.08239
3626.13738	0.11427
3624.20859	0.12973
3622.27979	0.11994
3620.35099	0.09800
3618.42220	0.09076
3616.49340	0.09720
3614.56460	0.10025
3612.63581	0.10447
3610.70701	0.10951
3608.77821	0.11282
3606.84942	0.12580
3604.92062	0.14175
3602.99183	0.14471
3601.06303	0.13913
3599.13423	0.13618
3597.20544	0.13467
3595.27664	0.13595
3593.34784	0.14464
3591.41905	0.14732
3589.49025	0.13216
3587.56145	0.12157
3585.63266	0.13859
3583.70386	0.15941
3581.77506	0.16791
3579.84627	0.16945
3577.91747	0.17032
3575.98867	0.17237
3574.05988	0.17503
3572.13108	0.17160
3570.20229	0.15174
3568.27349	0.12260
3566.34469	0.11944
3564.41590	0.14503
3562.48710	0.16710
3560.55830	0.17790
3558.62951	0.18379
3556.70071	0.18512
3554.77191	0.18041
3552.84312	0.17635
3550.91432	0.17762
3548.98552	0.17525
3547.05673	0.16759
3545.12793	0.16904
3543.19913	0.18228
3541.27034	0.19340
3539.34154	0.19472
3537.41274	0.19140
3535.48395	0.19121
3533.55515	0.19233
3531.62636	0.18826
3529.69756	0.18040
3527.76876	0.17589
3525.83997	0.17583
3523.91117	0.17889
3521.98237	0.18621
3520.05358	0.19424
3518.12478	0.19887
3516.19598	0.20049
3514.26719	0.19926
3512.33839	0.19493
3510.40959	0.19156
3508.48080	0.19299
3506.55200	0.19295
3504.62320	0.18733
3502.69441	0.18613
3500.76561	0.19338
3498.83682	0.19920
3496.90802	0.20038
3494.97922	0.20218
3493.05043	0.20544
3491.12163	0.20599
3489.19283	0.20366
3487.26404	0.20240
3485.33524	0.20187
3483.40644	0.20012
3481.47765	0.20076
3479.54885	0.20536
3477.62005	0.20883
3475.69126	0.20917
3473.76246	0.20917
3471.83366	0.21001
3469.90487	0.21045
3467.97607	0.21011
3466.04728	0.20983
3464.11848	0.20937
3462.18968	0.20904
3460.26089	0.21033
3458.33209	0.21242
3456.40329	0.21355
3454.47450	0.21356
3452.54570	0.21282
3450.61690	0.21027
3448.68811	0.20616
3446.75931	0.20493
3444.83051	0.20727
3442.90172	0.20990
3440.97292	0.21281
3439.04412	0.21518
3437.11533	0.21578
3435.18653	0.21589
3433.25774	0.21574
3431.32894	0.21527
3429.40014	0.21537
3427.47135	0.21526
3425.54255	0.21356
3423.61375	0.21045
3421.68496	0.20812
3419.75616	0.20911
3417.82736	0.21217
3415.89857	0.21405
3413.96977	0.21439
3412.04097	0.21416
3410.11218	0.21387
3408.18338	0.21376
3406.25458	0.21357
3404.32579	0.21329
3402.39699	0.21335
3400.46819	0.21311
3398.53940	0.21185
3396.61060	0.21025
3394.68181	0.20853
3392.75301	0.20760
3390.82421	0.20887
3388.89542	0.21037
3386.96662	0.20972
3385.03782	0.20806
3383.10903	0.20776
3381.18023	0.20888
3379.25143	0.20989
3377.32264	0.21008
3375.39384	0.20967
3373.46504	0.20944
3371.53625	0.20936
3369.60745	0.20838
3367.67865	0.20638
3365.74986	0.20454
3363.82106	0.20394
3361.89227	0.20400
3359.96347	0.20355
3358.03467	0.20299
3356.10588	0.20318
3354.17708	0.20381
3352.24828	0.20434
3350.31949	0.20491
3348.39069	0.20526
3346.46189	0.20470
3344.53310	0.20348
3342.60430	0.20263
3340.67550	0.20231
3338.74671	0.20158
3336.81791	0.20045
3334.88911	0.19992
3332.96032	0.20030
3331.03152	0.20055
3329.10273	0.19999
3327.17393	0.19920
3325.24513	0.19846
3323.31634	0.19805
3321.38754	0.19857
3319.45874	0.19917
3317.52995	0.19876
3315.60115	0.19777
3313.67235	0.19689
3311.74356	0.19651
3309.81476	0.19705
3307.88596	0.19825
3305.95717	0.19880
3304.02837	0.19802
3302.09957	0.19700
3300.17078	0.19688
3298.24198	0.19727
3296.31318	0.19737
3294.38439	0.19688
3292.45559	0.19606
3290.52680	0.19561
3288.59800	0.19558
3286.66920	0.19532
3284.74041	0.19459
3282.81161	0.19392
3280.88281	0.19389
3278.95402	0.19380
3277.02522	0.19327
3275.09642	0.19372
3273.16763	0.19578
3271.23883	0.19763
3269.31003	0.19757
3267.38124	0.19638
3265.45244	0.19555
3263.52364	0.19502
3261.59485	0.19413
3259.66605	0.19342
3257.73726	0.19336
3255.80846	0.19310
3253.87966	0.19240
3251.95087	0.19220
3250.02207	0.19264
3248.09327	0.19265
3246.16448	0.19157
3244.23568	0.19047
3242.30688	0.19005
3240.37809	0.18979
3238.44929	0.18975
3236.52049	0.19040
3234.59170	0.19114
3232.66290	0.19046
3230.73410	0.18850
3228.80531	0.18717
3226.87651	0.18698
3224.94772	0.18705
3223.01892	0.18667
3221.09012	0.18581
3219.16133	0.18516
3217.23253	0.18478
3215.30373	0.18433
3213.37494	0.18391
3211.44614	0.18333
3209.51734	0.18302
3207.58855	0.18362
3205.65975	0.18420
3203.73095	0.18411
3201.80216	0.18322
3199.87336	0.18145
3197.94456	0.18030
3196.01577	0.18093
3194.08697	0.18212
3192.15817	0.18268
3190.22938	0.18270
3188.30058	0.18201
3186.37179	0.18059
3184.44299	0.17973
3182.51419	0.17975
3180.58540	0.17927
3178.65660	0.17847
3176.72780	0.17884
3174.79901	0.17998
3172.87021	0.18064
3170.94141	0.18064
3169.01262	0.18026
3167.08382	0.17997
3165.15502	0.17977
3163.22623	0.17928
3161.29743	0.17880
3159.36863	0.17874
3157.43984	0.17877
3155.51104	0.17860
3153.58225	0.17821
3151.65345	0.17768
3149.72465	0.17753
3147.79586	0.17792
3145.86706	0.17815
3143.93826	0.17792
3142.00947	0.17784
3140.08067	0.17795
3138.15187	0.17756
3136.22308	0.17645
3134.29428	0.17537
3132.36548	0.17582
3130.43669	0.17719
3128.50789	0.17711
3126.57909	0.17595
3124.65030	0.17523
3122.72150	0.17505
3120.79271	0.17524
3118.86391	0.17522
3116.93511	0.17473
3115.00632	0.17447
3113.07752	0.17460
3111.14872	0.17500
3109.21993	0.17582
3107.29113	0.17657
3105.36233	0.17652
3103.43354	0.17566
3101.50474	0.17490
3099.57594	0.17480
3097.64715	0.17488
3095.71835	0.17531
3093.78955	0.17640
3091.86076	0.17737
3089.93196	0.17783
3088.00317	0.17790
3086.07437	0.17748
3084.14557	0.17678
3082.21678	0.17620
3080.28798	0.17609
3078.35918	0.17692
3076.43039	0.17819
3074.50159	0.17854
3072.57279	0.17799
3070.64400	0.17739
3068.71520	0.17691
3066.78640	0.17663
3064.85761	0.17682
3062.92881	0.17738
3061.00001	0.17781
3059.07122	0.17781
3057.14242	0.17773
3055.21362	0.17834
3053.28483	0.17958
3051.35603	0.18024
3049.42724	0.18023
3047.49844	0.18071
3045.56964	0.18139
3043.64085	0.18133
3041.71205	0.18099
3039.78325	0.18092
3037.85446	0.18083
3035.92566	0.18050
3033.99686	0.18011
3032.06807	0.18044
3030.13927	0.18212
3028.21047	0.18435
3026.28168	0.18643
3024.35288	0.18854
3022.42408	0.19092
3020.49529	0.19393
3018.56649	0.19725
3016.63770	0.20006
3014.70890	0.20291
3012.78010	0.20689
3010.85131	0.21139
3008.92251	0.21451
3006.99371	0.21539
3005.06492	0.21448
3003.13612	0.21189
3001.20732	0.20786
2999.27853	0.20341
2997.34973	0.19924
2995.42093	0.19594
2993.49214	0.19420
2991.56334	0.19348
2989.63454	0.19282
2987.70575	0.19253
2985.77695	0.19336
2983.84816	0.19550
2981.91936	0.19913
2979.99056	0.20430
2978.06177	0.21087
2976.13297	0.21859
2974.20417	0.22752
2972.27538	0.23811
2970.34658	0.25037
2968.41778	0.26395
2966.48899	0.27869
2964.56019	0.29427
2962.63139	0.30987
2960.70260	0.32446
2958.77380	0.33665
2956.84500	0.34451
2954.91621	0.34625
2952.98741	0.34101
2951.05861	0.32969
2949.12982	0.31498
2947.20102	0.29977
2945.27223	0.28576
2943.34343	0.27354
2941.41463	0.26374
2939.48584	0.25690
2937.55704	0.25225
2935.62824	0.24878
2933.69945	0.24677
2931.77065	0.24668
2929.84185	0.24738
2927.91306	0.24755
2925.98426	0.24772
2924.05546	0.24875
2922.12667	0.25039
2920.19787	0.25223
2918.26907	0.25437
2916.34028	0.25647
2914.41148	0.25796
2912.48269	0.25873
2910.55389	0.25902
2908.62509	0.25902
2906.69630	0.25922
2904.76750	0.26018
2902.83870	0.26198
2900.90991	0.26450
2898.98111	0.26735
2897.05231	0.27011
2895.12352	0.27278
2893.19472	0.27527
2891.26592	0.27739
2889.33713	0.27955
2887.40833	0.28270
2885.47953	0.28719
2883.55074	0.29259
2881.62194	0.29865
2879.69315	0.30559
2877.76435	0.31367
2875.83555	0.32230
2873.90676	0.32954
2871.97796	0.33313
2870.04916	0.33101
2868.12037	0.32188
2866.19157	0.30693
2864.26277	0.28987
2862.33398	0.27410
2860.40518	0.26117
2858.47638	0.25155
2856.54759	0.24514
2854.61879	0.24141
2852.68999	0.23986
2850.76120	0.24051
2848.83240	0.24441
2846.90360	0.25276
2844.97481	0.26560
2843.04601	0.28163
2841.11722	0.29815
2839.18842	0.31096
2837.25962	0.31547
2835.33083	0.30913
2833.40203	0.29317
2831.47323	0.27192
2829.54444	0.25062
2827.61564	0.23306
2825.68684	0.22022
2823.75805	0.21122
2821.82925	0.20514
2819.90045	0.20147
2817.97166	0.19972
2816.04286	0.19948
2814.11406	0.20056
2812.18527	0.20300
2810.25647	0.20672
2808.32768	0.21167
2806.39888	0.21769
2804.47008	0.22464
2802.54129	0.23245
2800.61249	0.24051
2798.68369	0.24780
2796.75490	0.25433
2794.82610	0.26052
2792.89730	0.26492
2790.96851	0.26397
2789.03971	0.25519
2787.11091	0.24016
2785.18212	0.22335
2783.25332	0.20880
2781.32452	0.19801
2779.39573	0.19064
2777.46693	0.18586
2775.53814	0.18257
2773.60934	0.17994
2771.68054	0.17799
2769.75175	0.17658
2767.82295	0.17524
2765.89415	0.17381
2763.96536	0.17256
2762.03656	0.17183
2760.10776	0.17146
2758.17897	0.17097
2756.25017	0.17045
2754.32137	0.17026
2752.39258	0.17029
2750.46378	0.17028
2748.53498	0.17005
2746.60619	0.16944
2744.67739	0.16853
2742.74860	0.16797
2740.81980	0.16804
2738.89100	0.16819
2736.96221	0.16806
2735.03341	0.16798
2733.10461	0.16833
2731.17582	0.16897
2729.24702	0.16963
2727.31822	0.17034
2725.38943	0.17086
2723.46063	0.17091
2721.53183	0.17108
2719.60304	0.17187
2717.67424	0.17294
2715.74544	0.17396
2713.81665	0.17473
2711.88785	0.17523
2709.95905	0.17581
2708.03026	0.17645
2706.10146	0.17694
2704.17267	0.17743
2702.24387	0.17812
2700.31507	0.17889
2698.38628	0.17953
2696.45748	0.18004
2694.52868	0.18038
2692.59989	0.18045
2690.67109	0.18054
2688.74229	0.18092
2686.81350	0.18143
2684.88470	0.18187
2682.95590	0.18213
2681.02711	0.18210
2679.09831	0.18174
2677.16951	0.18125
2675.24072	0.18099
2673.31192	0.18083
2671.38313	0.18041
2669.45433	0.17994
2667.52553	0.17983
2665.59674	0.18015
2663.66794	0.18071
2661.73914	0.18115
2659.81035	0.18114
2657.88155	0.18090
2655.95275	0.18107
2654.02396	0.18158
2652.09516	0.18173
2650.16636	0.18138
2648.23757	0.18111
2646.30877	0.18151
2644.37997	0.18246
2642.45118	0.18323
2640.52238	0.18345
2638.59359	0.18344
2636.66479	0.18366
2634.73599	0.18423
2632.80720	0.18488
2630.87840	0.18534
2628.94960	0.18558
2627.02081	0.18564
2625.09201	0.18571
2623.16321	0.18566
2621.23442	0.18498
2619.30562	0.18378
2617.37682	0.18281
2615.44803	0.18244
2613.51923	0.18197
2611.59043	0.18123
2609.66164	0.18102
2607.73284	0.18114
2605.80404	0.18086
2603.87525	0.18022
2601.94645	0.17920
2600.01766	0.17806
2598.08886	0.17744
2596.16006	0.17697
2594.23127	0.17638
2592.30247	0.17609
2590.37367	0.17573
2588.44488	0.17506
2586.51608	0.17464
2584.58728	0.17459
2582.65849	0.17452
2580.72969	0.17424
2578.80089	0.17386
2576.87210	0.17340
2574.94330	0.17264
2573.01450	0.17160
2571.08571	0.17075
2569.15691	0.17018
2567.22812	0.16936
2565.29932	0.16841
2563.37052	0.16784
2561.44173	0.16753
2559.51293	0.16731
2557.58413	0.16709
2555.65534	0.16616
2553.72654	0.16447
2551.79774	0.16331
2549.86895	0.16314
2547.94015	0.16295
2546.01135	0.16228
2544.08256	0.16150
2542.15376	0.16072
2540.22496	0.16005
2538.29617	0.15967
2536.36737	0.15898
2534.43858	0.15797
2532.50978	0.15751
2530.58098	0.15726
2528.65219	0.15673
2526.72339	0.15619
2524.79459	0.15575
2522.86580	0.15520
2520.93700	0.15438
2519.00820	0.15370
2517.07941	0.15350
2515.15061	0.15346
2513.22181	0.15328
2511.29302	0.15283
2509.36422	0.15212
2507.43542	0.15143
2505.50663	0.15114
2503.57783	0.15119
2501.64904	0.15118
2499.72024	0.15108
2497.79144	0.15089
2495.86265	0.15050
2493.93385	0.15009
2492.00505	0.15004
2490.07626	0.15005
2488.14746	0.14933
2486.21866	0.14802
2484.28987	0.14704
2482.36107	0.14665
2480.43227	0.14653
2478.50348	0.14680
2476.57468	0.14724
2474.64588	0.14708
2472.71709	0.14644
2470.78829	0.14562
2468.85949	0.14484
2466.93070	0.14477
2465.00190	0.14537
2463.07311	0.14594
2461.14431	0.14586
2459.21551	0.14522
2457.28672	0.14496
2455.35792	0.14546
2453.42912	0.14591
2451.50033	0.14558
2449.57153	0.14485
2447.64273	0.14462
2445.71394	0.14522
2443.78514	0.14616
2441.85634	0.14647
2439.92755	0.14588
2437.99875	0.14526
2436.06995	0.14508
2434.14116	0.14486
2432.21236	0.14438
2430.28357	0.14397
2428.35477	0.14381
2426.42597	0.14384
2424.49718	0.14407
2422.56838	0.14423
2420.63958	0.14389
2418.71079	0.14323
2416.78199	0.14265
2414.85319	0.14224
2412.92440	0.14217
2410.99560	0.14256
2409.06680	0.14289
2407.13801	0.14266
2405.20921	0.14226
2403.28041	0.14207
2401.35162	0.14195
2399.42282	0.14209
2397.49403	0.14247
2395.56523	0.14243
2393.63643	0.14195
2391.70764	0.14181
2389.77884	0.14221
2387.85004	0.14225
2385.92125	0.14141
2383.99245	0.14017
2382.06365	0.13841
2380.13486	0.13517
2378.20606	0.13013
2376.27726	0.12417
2374.34847	0.11777
2372.41967	0.11001
2370.49087	0.10082
2368.56208	0.09164
2366.63328	0.08374
2364.70448	0.07810
2362.77569	0.07520
2360.84689	0.07467
2358.91810	0.07653
2356.98930	0.08259
2355.06050	0.09443
2353.13171	0.10967
2351.20291	0.12167
2349.27411	0.12575
2347.34532	0.12227
2345.41652	0.11449
2343.48772	0.10866
2341.55893	0.10810
2339.63013	0.10994
2337.70133	0.11110
2335.77254	0.11199
2333.84374	0.11397
2331.91494	0.11621
2329.98615	0.11822
2328.05735	0.12173
2326.12856	0.12760
2324.19976	0.13312
2322.27096	0.13589
2320.34217	0.13761
2318.41337	0.13989
2316.48457	0.14196
2314.55578	0.14331
2312.62698	0.14409
2310.69818	0.14426
2308.76939	0.14403
2306.84059	0.14384
2304.91179	0.14405
2302.98300	0.14521
2301.05420	0.14709
2299.12540	0.14848
2297.19661	0.14927
2295.26781	0.15034
2293.33902	0.15213
2291.41022	0.15426
2289.48142	0.15612
2287.55263	0.15739
2285.62383	0.15789
2283.69503	0.15741
2281.76624	0.15606
2279.83744	0.15440
2277.90864	0.15341
2275.97985	0.15361
2274.05105	0.15407
2272.12225	0.15372
2270.19346	0.15266
2268.26466	0.15125
2266.33586	0.14995
2264.40707	0.14956
2262.47827	0.15010
2260.54947	0.15070
2258.62068	0.15115
2256.69188	0.15123
2254.76309	0.15044
2252.83429	0.14951
2250.90549	0.14929
2248.97670	0.14959
2247.04790	0.15013
2245.11910	0.15090
2243.19031	0.15138
2241.26151	0.15086
2239.33271	0.14990
2237.40392	0.14972
2235.47512	0.15035
2233.54632	0.15083
2231.61753	0.15098
2229.68873	0.15143
2227.75993	0.15200
2225.83114	0.15271
2223.90234	0.15367
2221.97355	0.15412
2220.04475	0.15460
2218.11595	0.15551
2216.18716	0.15472
2214.25836	0.15174
2212.32956	0.14971
2210.40077	0.15030
2208.47197	0.15060
2206.54317	0.14944
2204.61438	0.14956
2202.68558	0.15024
2200.75678	0.14905
2198.82799	0.14699
2196.89919	0.14583
2194.97039	0.14663
2193.04160	0.14876
2191.11280	0.15051
2189.18401	0.15155
2187.25521	0.15159
2185.32641	0.15029
2183.39762	0.14781
2181.46882	0.14434
2179.54002	0.14188
2177.61123	0.14213
2175.68243	0.14345
2173.75363	0.14385
2171.82484	0.14352
2169.89604	0.14461
2167.96724	0.14817
2166.03845	0.15084
2164.10965	0.15042
2162.18085	0.14860
2160.25206	0.14484
2158.32326	0.13910
2156.39447	0.13553
2154.46567	0.13538
2152.53687	0.13606
2150.60808	0.13635
2148.67928	0.13738
2146.75048	0.13916
2144.82169	0.14071
2142.89289	0.14139
2140.96409	0.14065
2139.03530	0.13918
2137.10650	0.13796
2135.17770	0.13736
2133.24891	0.13845
2131.32011	0.14083
2129.39131	0.14267
2127.46252	0.14373
2125.53372	0.14438
2123.60492	0.14455
2121.67613	0.14460
2119.74733	0.14492
2117.81854	0.14498
2115.88974	0.14455
2113.96094	0.14425
2112.03215	0.14423
2110.10335	0.14407
2108.17455	0.14340
2106.24576	0.14228
2104.31696	0.14104
2102.38816	0.14031
2100.45937	0.14087
2098.53057	0.14127
2096.60177	0.13967
2094.67298	0.13721
2092.74418	0.13541
2090.81538	0.13500
2088.88659	0.13652
2086.95779	0.13840
2085.02900	0.13854
2083.10020	0.13755
2081.17140	0.13712
2079.24261	0.13707
2077.31381	0.13616
2075.38501	0.13419
2073.45622	0.13240
2071.52742	0.13179
2069.59862	0.13100
2067.66983	0.12838
2065.74103	0.12574
2063.81223	0.12614
2061.88344	0.12829
2059.95464	0.12950
2058.02584	0.13066
2056.09705	0.13277
2054.16825	0.13547
2052.23946	0.13809
2050.31066	0.13872
2048.38186	0.13705
2046.45307	0.13541
2044.52427	0.13440
2042.59547	0.13325
2040.66668	0.13224
2038.73788	0.13155
2036.80908	0.13118
2034.88029	0.13110
2032.95149	0.13107
2031.02269	0.13112
2029.09390	0.13165
2027.16510	0.13312
2025.23630	0.13427
2023.30751	0.13378
2021.37871	0.13255
2019.44991	0.13141
2017.52112	0.13155
2015.59232	0.13368
2013.66353	0.13557
2011.73473	0.13602
2009.80593	0.13533
2007.87714	0.13311
2005.94834	0.13109
2004.01954	0.13185
2002.09075	0.13507
2000.16195	0.13861
1998.23315	0.14036
1996.30436	0.13855
1994.37556	0.13364
1992.44676	0.13110
1990.51797	0.13445
1988.58917	0.13940
1986.66037	0.14383
1984.73158	0.14808
1982.80278	0.15105
1980.87399	0.15178
1978.94519	0.14763
1977.01639	0.14052
1975.08760	0.13714
1973.15880	0.13759
1971.23000	0.13780
1969.30121	0.13542
1967.37241	0.13280
1965.44361	0.13426
1963.51482	0.13740
1961.58602	0.13805
1959.65722	0.13757
1957.72843	0.13799
1955.79963	0.13874
1953.87083	0.13895
1951.94204	0.13909
1950.01324	0.13920
1948.08445	0.13740
1946.15565	0.13194
1944.22685	0.12444
1942.29806	0.12339
1940.36926	0.13188
1938.44046	0.13961
1936.51167	0.14121
1934.58287	0.14051
1932.65407	0.14076
1930.72528	0.14123
1928.79648	0.14098
1926.86768	0.13831
1924.93889	0.13087
1923.01009	0.12475
1921.08129	0.12406
1919.15250	0.12350
1917.22370	0.12636
1915.29490	0.13475
1913.36611	0.13865
1911.43731	0.13438
1909.50852	0.12997
1907.57972	0.13196
1905.65092	0.13619
1903.72213	0.13779
1901.79333	0.13789
1899.86453	0.13717
1897.93574	0.13352
1896.00694	0.12889
1894.07814	0.12763
1892.14935	0.12581
1890.22055	0.12246
1888.29175	0.12578
1886.36296	0.13269
1884.43416	0.13585
1882.50536	0.13704
1880.57657	0.13790
1878.64777	0.13816
1876.71898	0.13831
1874.79018	0.13732
1872.86138	0.12979
1870.93259	0.11179
1869.00379	0.09723
1867.07499	0.10601
1865.14620	0.12531
1863.21740	0.13599
1861.28860	0.13813
1859.35981	0.13842
1857.43101	0.13951
1855.50221	0.14057
1853.57342	0.14088
1851.64462	0.13955
1849.71582	0.13379
1847.78703	0.12175
1845.85823	0.10698
1843.92944	0.10562
1842.00064	0.12231
1840.07184	0.13543
1838.14305	0.13804
1836.21425	0.13880
1834.28545	0.13780
1832.35666	0.12593
1830.42786	0.11020
1828.49906	0.10918
1826.57027	0.11582
1824.64147	0.12255
1822.71267	0.13325
1820.78388	0.14119
1818.85508	0.14238
1816.92628	0.14209
1814.99749	0.14078
1813.06869	0.13411
1811.13990	0.12753
1809.21110	0.13039
1807.28230	0.13777
1805.35351	0.13907
1803.42471	0.13043
1801.49591	0.11943
1799.56712	0.11800
1797.63832	0.12180
1795.70952	0.11723
1793.78073	0.10323
1791.85193	0.10077
1789.92313	0.11991
1787.99434	0.13553
1786.06554	0.13695
1784.13674	0.13232
1782.20795	0.12682
1780.27915	0.12469
1778.35035	0.12686
1776.42156	0.12094
1774.49276	0.09980
1772.56397	0.08049
1770.63517	0.08794
1768.70637	0.10987
1766.77758	0.12725
1764.84878	0.13099
1762.91998	0.12235
1760.99119	0.11787
1759.06239	0.12031
1757.13359	0.12260
1755.20480	0.12479
1753.27600	0.11514
1751.34720	0.08936
1749.41841	0.07288
1747.48961	0.08073
1745.56081	0.09357
1743.63202	0.09871
1741.70322	0.09824
1739.77443	0.09971
1737.84563	0.09999
1735.91683	0.08420
1733.98804	0.06606
1732.05924	0.07994
1730.13044	0.10649
1728.20165	0.12785
1726.27285	0.13766
1724.34405	0.13609
1722.41526	0.12831
1720.48646	0.10635
1718.55766	0.06734
1716.62887	0.05181
1714.70007	0.08103
1712.77127	0.11372
1710.84248	0.12875
1708.91368	0.12345
1706.98489	0.10547
1705.05609	0.09307
1703.12729	0.08504
1701.19850	0.06548
1699.26970	0.05079
1697.34090	0.06180
1695.41211	0.09547
1693.48331	0.13015
1691.55451	0.14069
1689.62572	0.13363
1687.69692	0.11777
1685.76812	0.08828
1683.83933	0.07880
1681.91053	0.11794
1679.98173	0.15536
1678.05294	0.17176
1676.12414	0.17268
1674.19534	0.17123
1672.26655	0.16499
1670.33775	0.15564
1668.40896	0.17058
1666.48016	0.19398
1664.55136	0.19746
1662.62257	0.19702
1660.69377	0.21343
1658.76497	0.22699
1656.83618	0.21521
1654.90738	0.17725
1652.97858	0.17030
1651.04979	0.21357
1649.12099	0.22714
1647.19219	0.23518
1645.26340	0.28158
1643.33460	0.32442
1641.40580	0.33500
1639.47701	0.31611
1637.54821	0.27673
1635.61942	0.26047
1633.69062	0.29617
1631.76182	0.32825
1629.83303	0.33904
1627.90423	0.34397
1625.97543	0.34977
1624.04664	0.35538
1622.11784	0.36923
1620.18904	0.37665
1618.26025	0.36032
1616.33145	0.34337
1614.40265	0.34783
1612.47386	0.34615
1610.54506	0.32790
1608.61626	0.30764
1606.68747	0.29553
1604.75867	0.28612
1602.82988	0.27626
1600.90108	0.26940
1598.97228	0.26338
1597.04349	0.25332
1595.11469	0.24237
1593.18589	0.23602
1591.25710	0.23269
1589.32830	0.22934
1587.39950	0.22539
1585.47071	0.22009
1583.54191	0.21383
1581.61311	0.20571
1579.68432	0.18810
1577.75552	0.15837
1575.82672	0.14523
1573.89793	0.15879
1571.96913	0.15802
1570.04034	0.14278
1568.11154	0.14411
1566.18274	0.15415
1564.25395	0.15288
1562.32515	0.13041
1560.39635	0.07208
1558.46756	0.03325
1556.53876	0.07649
1554.60996	0.11562
1552.68117	0.13307
1550.75237	0.13823
1548.82357	0.13988
1546.89478	0.12943
1544.96598	0.09475
1543.03718	0.04538
1541.10839	0.01149
1539.17959	0.04552
1537.25079	0.09591
1535.32200	0.10735
1533.39320	0.10501
1531.46441	0.11679
1529.53561	0.11996
1527.60681	0.10282
1525.67802	0.08161
1523.74922	0.05967
1521.82042	0.04287
1519.89163	0.04827
1517.96283	0.06076
1516.03403	0.07904
1514.10524	0.10006
1512.17644	0.09993
1510.24764	0.06748
1508.31885	0.01757
1506.39005	0.02757
1504.46125	0.09623
1502.53246	0.13106
1500.60366	0.13057
1498.67487	0.11702
1496.74607	0.12046
1494.81727	0.14113
1492.88848	0.14378
1490.95968	0.12286
1489.03088	0.11856
1487.10209	0.15554
1485.17329	0.19966
1483.24449	0.23245
1481.31570	0.26263
1479.38690	0.29357
1477.45810	0.31558
1475.52931	0.32255
1473.60051	0.32134
1471.67171	0.33318
1469.74292	0.34809
1467.81412	0.34234
1465.88533	0.32761
1463.95653	0.33449
1462.02773	0.34861
1460.09894	0.33529
1458.17014	0.30363
1456.24134	0.31356
1454.31255	0.34670
1452.38375	0.35124
1450.45495	0.32716
1448.52616	0.29015
1446.59736	0.26061
1444.66856	0.24153
1442.73977	0.22320
1440.81097	0.20314
1438.88217	0.17961
1436.95338	0.16320
1435.02458	0.17295
1433.09578	0.18628
1431.16699	0.18591
1429.23819	0.18219
1427.30940	0.17699
1425.38060	0.16226
1423.45180	0.14523
1421.52301	0.12890
1419.59421	0.11128
1417.66541	0.11686
1415.73662	0.14339
1413.80782	0.16284
1411.87902	0.17152
1409.95023	0.17628
1408.02143	0.17612
1406.09263	0.17173
1404.16384	0.17474
1402.23504	0.18127
1400.30624	0.17891
1398.37745	0.17497
1396.44865	0.18120
1394.51986	0.20150
1392.59106	0.22801
1390.66226	0.24170
1388.73347	0.24202
1386.80467	0.24966
1384.87587	0.27179
1382.94708	0.29345
1381.01828	0.30840
1379.08948	0.31776
1377.16069	0.31746
1375.23189	0.30718
1373.30309	0.29775
1371.37430	0.28896
1369.44550	0.27325
1367.51670	0.25576
1365.58791	0.23660
1363.65911	0.21406
1361.73032	0.20475
1359.80152	0.21246
1357.87272	0.22035
1355.94393	0.22405
1354.01513	0.22833
1352.08633	0.23269
1350.15754	0.23417
1348.22874	0.23358
1346.29994	0.23171
1344.37115	0.22526
1342.44235	0.20859
1340.51355	0.18539
1338.58476	0.17271
1336.65596	0.17466
1334.72716	0.17743
1332.79837	0.17507
1330.86957	0.17097
1328.94077	0.16773
1327.01198	0.16466
1325.08318	0.16049
1323.15439	0.15453
1321.22559	0.14639
1319.29679	0.13885
1317.36800	0.13578
1315.43920	0.13530
1313.51040	0.13519
1311.58161	0.13645
1309.65281	0.13763
1307.72401	0.13740
1305.79522	0.13696
1303.86642	0.13632
1301.93762	0.13495
1300.00883	0.13346
1298.08003	0.13239
1296.15123	0.13199
1294.22244	0.13199
1292.29364	0.13191
1290.36485	0.13211
1288.43605	0.13394
1286.50725	0.13855
1284.57846	0.14528
1282.64966	0.15338
1280.72086	0.16515
1278.79207	0.18527
1276.86327	0.21761
1274.93447	0.26123
1273.00568	0.30858
1271.07688	0.34998
1269.14808	0.38092
1267.21929	0.40610
1265.29049	0.43562
1263.36169	0.47580
1261.43290	0.52472
1259.50410	0.57468
1257.57531	0.61714
1255.64651	0.64993
1253.71771	0.67954
1251.78892	0.71395
1249.86012	0.75595
1247.93132	0.80370
1246.00253	0.85396
1244.07373	0.90394
1242.14493	0.95284
1240.21614	1.00283
1238.28734	1.05528
1236.35854	1.10489
1234.42975	1.14297
1232.50095	1.16689
1230.57215	1.18081
1228.64336	1.18740
1226.71456	1.18443
1224.78577	1.17155
1222.85697	1.15643
1220.92817	1.14999
1218.99938	1.15904
1217.07058	1.18542
1215.14178	1.22614
1213.21299	1.27234
1211.28419	1.31459
1209.35539	1.35201
1207.42660	1.39169
1205.49780	1.43761
1203.56900	1.48525
1201.64021	1.52552
1199.71141	1.55118
1197.78261	1.56342
1195.85382	1.57297
1193.92502	1.59157
1191.99622	1.62284
1190.06743	1.66317
1188.13863	1.70728
1186.20984	1.74866
1184.28104	1.77800
1182.35224	1.78645
1180.42345	1.76994
1178.49465	1.72981
1176.56585	1.67257
1174.63706	1.60713
1172.70826	1.53790
1170.77946	1.46317
1168.85067	1.38205
1166.92187	1.29873
1164.99307	1.21884
1163.06428	1.14731
1161.13548	1.08961
1159.20668	1.05023
1157.27789	1.02909
1155.34909	1.02048
1153.42030	1.01425
1151.49150	0.99740
1149.56270	0.95991
1147.63391	0.90328
1145.70511	0.83901
1143.77631	0.77810
1141.84752	0.72548
1139.91872	0.68207
1137.98992	0.64717
1136.06113	0.61961
1134.13233	0.59795
1132.20353	0.58072
1130.27474	0.56761
1128.34594	0.55869
1126.41714	0.55232
1124.48835	0.54536
1122.55955	0.53510
1120.63076	0.52104
1118.70196	0.50511
1116.77316	0.48980
1114.84437	0.47650
1112.91557	0.46604
1110.98677	0.45984
1109.05798	0.45916
1107.12918	0.46238
1105.20038	0.46540
1103.27159	0.46406
1101.34279	0.45381
1099.41399	0.43245
1097.48520	0.40444
1095.55640	0.37704
1093.62760	0.35432
1091.69881	0.33674
1089.77001	0.32284
1087.84121	0.31089
1085.91242	0.30010
1083.98362	0.29028
1082.05483	0.28112
1080.12603	0.27219
1078.19723	0.26348
1076.26844	0.25541
1074.33964	0.24832
1072.41084	0.24251
1070.48205	0.23894
1068.55325	0.23968
1066.62445	0.24813
1064.69566	0.27369
1062.76686	0.33461
1060.83806	0.44456
1058.90927	0.59461
1056.98047	0.76095
1055.05167	0.92701
1053.12288	1.08435
1051.19408	1.22512
1049.26529	1.34949
1047.33649	1.47361
1045.40769	1.61698
1043.47890	1.77655
1041.55010	1.92133
1039.62130	2.00000
1037.69251	1.95993
1035.76371	1.80258
1033.83491	1.59080
1031.90612	1.38384
1029.97732	1.20439
1028.04852	1.05175
1026.11973	0.92032
1024.19093	0.80846
1022.26213	0.71650
1020.33334	0.64149
1018.40454	0.57820
1016.47575	0.52324
1014.54695	0.47583
1012.61815	0.43666
1010.68936	0.40710
1008.76056	0.38995
1006.83176	0.38702
1004.90297	0.39233
1002.97417	0.39226
1001.04537	0.37653
999.11658	0.34681
997.18778	0.31312
995.25898	0.28428
993.33019	0.26322
991.40139	0.24854
989.47259	0.23799
987.54380	0.23102
985.61500	0.22812
983.68620	0.22708
981.75741	0.22379
979.82861	0.21748
977.89982	0.21097
975.97102	0.20656
974.04222	0.20486
972.11343	0.20575
970.18463	0.20904
968.25583	0.21474
966.32704	0.22356
964.39824	0.23717
962.46944	0.25839
960.54065	0.29153
958.61185	0.34278
956.68305	0.41843
954.75426	0.52086
952.82546	0.64611
950.89666	0.78397
948.96787	0.91711
947.03907	1.02467
945.11028	1.09766
943.18148	1.14524
941.25268	1.17780
939.32389	1.19783
937.39509	1.20701
935.46629	1.20599
933.53750	1.18985
931.60870	1.15109
929.67990	1.08657
927.75111	1.00215
925.82231	0.90868
923.89351	0.81496
921.96472	0.72629
920.03592	0.64561
918.10712	0.57421
916.17833	0.51238
914.24953	0.45949
912.32074	0.41434
910.39194	0.37616
908.46314	0.34444
906.53435	0.31811
904.60555	0.29583
902.67675	0.27642
900.74796	0.25909
898.81916	0.24368
896.89036	0.22978
894.96157	0.21668
893.03277	0.20422
891.10397	0.19249
889.17518	0.18155
887.24638	0.17112
885.31758	0.16084
883.38879	0.15087
881.45999	0.14156
879.53120	0.13304
877.60240	0.12511
875.67360	0.11717
873.74481	0.10917
871.81601	0.10212
869.88721	0.09632
867.95842	0.09053
866.02962	0.08438
864.10082	0.07869
862.17203	0.07348
860.24323	0.06830
858.31443	0.06326
856.38564	0.05885
854.45684	0.05507
852.52804	0.05169
850.59925	0.04915
848.67045	0.04765
846.74165	0.04763
844.81286	0.05312
842.88406	0.07236
840.95527	0.10517
839.02647	0.12937
837.09767	0.12134
835.16888	0.08915
833.24008	0.05891
831.31128	0.04134
829.38249	0.03259
827.45369	0.02814
825.52489	0.02541
823.59610	0.02307
821.66730	0.02111
819.73850	0.02007
817.80971	0.01954
815.88091	0.01884
813.95211	0.01824
812.02332	0.01777
810.09452	0.01713
808.16573	0.01647
806.23693	0.01603
804.30813	0.01548
802.37934	0.01465
800.45054	0.01397
798.52174	0.01368
796.59295	0.01366
794.66415	0.01364
792.73535	0.01344
790.80656	0.01318
788.87776	0.01257
786.94896	0.01160
785.02017	0.01149
783.09137	0.01229
781.16257	0.01305
779.23378	0.01310
777.30498	0.01267
775.37619	0.01276
773.44739	0.01382
771.51859	0.01537
769.58980	0.01746
767.66100	0.02012
765.73220	0.02311
763.80341	0.02658
761.87461	0.03073
759.94581	0.03580
758.01702	0.04227
756.08822	0.05055
754.15942	0.06084
752.23063	0.07312
750.30183	0.08673
748.37303	0.10105
746.44424	0.11715
744.51544	0.13818
742.58664	0.16920
740.65785	0.21674
738.72905	0.28679
736.80026	0.38199
734.87146	0.49900
732.94266	0.62785
731.01387	0.75873
729.08507	0.89112
727.15627	1.03080
725.22748	1.17472
723.29868	1.30468
721.36988	1.40016
719.44109	1.45125
717.51229	1.46243
715.58349	1.44368
713.65470	1.40126
711.72590	1.34531
709.79710	1.28710
707.86831	1.22865
705.93951	1.16974
704.01072	1.11296
702.08192	1.06178
700.15312	1.01901
698.22433	0.98508
696.29553	0.95648
694.36673	0.92496
692.43794	0.87875
690.50914	0.81187
688.58034	0.73569
686.65155	0.66654
684.72275	0.60845
682.79395	0.55854
680.86516	0.51577
678.93636	0.47925
677.00756	0.44683
675.07877	0.41757
673.14997	0.39252
671.22118	0.37203
669.29238	0.34983
667.36358	0.32401
665.43479	0.30682
663.50599	0.29438
661.57719	0.28358
659.64840	0.27794
657.71960	0.27743
655.79080	0.27410
653.86201	0.26059
651.93321	0.24054
650.00441	0.22236
648.07562	0.20923
646.14682	0.19999
644.21802	0.19243
642.28923	0.18443
640.36043	0.17588
638.43163	0.16833
636.50284	0.16239
634.57404	0.15863
632.64525	0.15815
630.71645	0.16230
628.78765	0.17384
626.85886	0.19538
624.93006	0.22419
623.00126	0.25245
621.07247	0.27611
619.14367	0.29439
617.21487	0.30299
615.28608	0.29746
613.35728	0.27878
611.42848	0.25329
609.49969	0.22940
607.57089	0.21216
605.64209	0.20344
603.71330	0.20617
601.78450	0.22895
599.85571	0.29043
597.92691	0.40699
595.99811	0.56403
594.06932	0.73035
592.14052	0.90807
590.21172	1.10429
588.28293	1.27446
586.35413	1.36702
584.42533	1.36593
582.49654	1.27250
580.56774	1.10139
578.63894	0.89628
576.71015	0.70670
574.78135	0.56159
572.85255	0.46336
570.92376	0.39665
568.99496	0.35084
567.06617	0.32327
565.13737	0.31380
563.20857	0.32709
561.27978	0.37655
559.35098	0.48118
557.42218	0.65314
555.49339	0.87608
553.56459	1.08355
551.63579	1.19153
549.70700	1.17779
547.77820	1.09160
545.84940	0.98901
543.92061	0.89380
541.99181	0.80646
540.06301	0.72502
538.13422	0.65266
536.20542	0.59284
534.27663	0.54607
532.34783	0.50877
530.41903	0.47638
528.49024	0.44597
526.56144	0.41879
524.63264	0.40131
522.70385	0.38946
520.77505	0.37197
518.84625	0.35157
516.91746	0.33984
514.98866	0.33664
513.05986	0.33287
511.13107	0.32487
509.20227	0.31355
507.27347	0.30248
505.34468	0.29420
503.41588	0.28548
501.48708	0.27885
499.55829	0.27820
497.62949	0.27716
495.70070	0.27094
493.77190	0.26117
491.84310	0.25306
489.91431	0.24891
487.98551	0.24216
486.05671	0.23033
484.12792	0.22189
482.19912	0.22106
480.27032	0.21969
478.34153	0.21287
476.41273	0.20206
474.48393	0.18563
472.55514	0.17065
470.62634	0.16915
468.69754	0.17383
466.76875	0.17547
464.83995	0.17372
462.91116	0.16862
460.98236	0.15892
459.05356	0.14757
457.12477	0.15190
455.19597	0.17377
453.26717	0.19504
451.33838	0.21583
449.40958	0.23718
447.48078	0.25324
445.55199	0.26585
443.62319	0.28091
441.69439	0.30536
439.76560	0.34197
437.83680	0.39965
435.90800	0.50224
433.97921	0.64380
432.05041	0.77012
430.12162	0.82767
428.19282	0.79779
426.26402	0.69888
424.33523	0.56854
422.40643	0.44157
420.47763	0.31814
418.54884	0.21922
416.62004	0.19049
414.69124	0.18576
412.76245	0.17041
410.83365	0.15214
408.90485	0.13743
406.97606	0.12513
405.04726	0.11334
403.11846	0.09504
401.18967	0.05994
399.26087	0.01149
