3998.39510	0.00000
3997.43071	0.00023
3996.46631	0.00036
3995.50191	0.00049
3994.53751	0.00054
3993.57311	0.00045
3992.60871	0.00042
3991.64432	0.00050
3990.67992	0.00052
3989.71552	0.00048
3988.75112	0.00058
3987.78672	0.00086
3986.82232	0.00113
3985.85793	0.00121
3984.89353	0.00108
3983.92913	0.00097
3982.96473	0.00113
3982.00033	0.00146
3981.03594	0.00170
3980.07154	0.00177
3979.10714	0.00181
3978.14274	0.00195
3977.17834	0.00213
3976.21394	0.00230
3975.24955	0.00249
3974.28515	0.00267
3973.32075	0.00270
3972.35635	0.00258
3971.39195	0.00243
3970.42755	0.00251
3969.46316	0.00282
3968.49876	0.00302
3967.53436	0.00305
3966.56996	0.00312
3965.60556	0.00322
3964.64117	0.00328
3963.67677	0.00346
3962.71237	0.00374
3961.74797	0.00391
3960.78357	0.00394
3959.81917	0.00399
3958.85478	0.00408
3957.89038	0.00416
3956.92598	0.00432
3955.96158	0.00452
3954.99718	0.00456
3954.03278	0.00454
3953.06839	0.00467
3952.10399	0.00490
3951.13959	0.00510
3950.17519	0.00522
3949.21079	0.00531
3948.24640	0.00540
3947.28200	0.00537
3946.31760	0.00538
3945.35320	0.00573
3944.38880	0.00635
3943.42440	0.00680
3942.46001	0.00664
3941.49561	0.00610
3940.53121	0.00589
3939.56681	0.00607
3938.60241	0.00627
3937.63801	0.00636
3936.67362	0.00640
3935.70922	0.00648
3934.74482	0.00666
3933.78042	0.00699
3932.81602	0.00731
3931.85163	0.00729
3930.88723	0.00711
3929.92283	0.00714
3928.95843	0.00730
3927.99403	0.00748
3927.02963	0.00776
3926.06524	0.00807
3925.10084	0.00822
3924.13644	0.00811
3923.17204	0.00795
3922.20764	0.00804
3921.24324	0.00841
3920.27885	0.00871
3919.31445	0.00872
3918.35005	0.00885
3917.38565	0.00905
3916.42125	0.00887
3915.45686	0.00866
3914.49246	0.00870
3913.52806	0.00876
3912.56366	0.00882
3911.59926	0.00895
3910.63486	0.00910
3909.67047	0.00928
3908.70607	0.00948
3907.74167	0.00971
3906.77727	0.01006
3905.81287	0.01067
3904.84847	0.01119
3903.88408	0.01120
3902.91968	0.01116
3901.95528	0.01124
3900.99088	0.01118
3900.02648	0.01124
3899.06209	0.01112
3898.09769	0.01059
3897.13329	0.01033
3896.16889	0.01049
3895.20449	0.01071
3894.24009	0.01093
3893.27570	0.01141
3892.31130	0.01214
3891.34690	0.01234
3890.38250	0.01183
3889.41810	0.01151
3888.45370	0.01173
3887.48931	0.01234
3886.52491	0.01297
3885.56051	0.01280
3884.59611	0.01215
3883.63171	0.01199
3882.66731	0.01236
3881.70292	0.01312
3880.73852	0.01367
3879.77412	0.01332
3878.80972	0.01272
3877.84532	0.01259
3876.88093	0.01294
3875.91653	0.01361
3874.95213	0.01419
3873.98773	0.01402
3873.02333	0.01349
3872.05893	0.01365
3871.09454	0.01460
3870.13014	0.01524
3869.16574	0.01461
3868.20134	0.01382
3867.23694	0.01390
3866.27254	0.01466
3865.30815	0.01524
3864.34375	0.01501
3863.37935	0.01479
3862.41495	0.01499
3861.45055	0.01491
3860.48616	0.01449
3859.52176	0.01444
3858.55736	0.01486
3857.59296	0.01532
3856.62856	0.01571
3855.66416	0.01681
3854.69977	0.01862
3853.73537	0.01884
3852.77097	0.01731
3851.80657	0.01605
3850.84217	0.01535
3849.87777	0.01519
3848.91338	0.01533
3847.94898	0.01540
3846.98458	0.01546
3846.02018	0.01568
3845.05578	0.01611
3844.09139	0.01650
3843.12699	0.01660
3842.16259	0.01686
3841.19819	0.01746
3840.23379	0.01796
3839.26939	0.01854
3838.30500	0.01885
3837.34060	0.01807
3836.37620	0.01750
3835.41180	0.01768
3834.44740	0.01758
3833.48300	0.01747
3832.51861	0.01799
3831.55421	0.01833
3830.58981	0.01795
3829.62541	0.01765
3828.66101	0.01792
3827.69662	0.01839
3826.73222	0.01842
3825.76782	0.01807
3824.80342	0.01796
3823.83902	0.01839
3822.87462	0.01945
3821.91023	0.02058
3820.94583	0.02024
3819.98143	0.01888
3819.01703	0.01839
3818.05263	0.01916
3817.08823	0.02048
3816.12384	0.02070
3815.15944	0.01942
3814.19504	0.01860
3813.23064	0.01864
3812.26624	0.01892
3811.30185	0.01916
3810.33745	0.01941
3809.37305	0.01985
3808.40865	0.02078
3807.44425	0.02173
3806.47985	0.02138
3805.51546	0.02043
3804.55106	0.02031
3803.58666	0.02108
3802.62226	0.02227
3801.65786	0.02270
3800.69346	0.02159
3799.72907	0.02052
3798.76467	0.02047
3797.80027	0.02108
3796.83587	0.02151
3795.87147	0.02124
3794.90708	0.02088
3793.94268	0.02101
3792.97828	0.02126
3792.01388	0.02131
3791.04948	0.02130
3790.08508	0.02133
3789.12069	0.02144
3788.15629	0.02162
3787.19189	0.02175
3786.22749	0.02187
3785.26309	0.02196
3784.29869	0.02189
3783.33430	0.02183
3782.36990	0.02203
3781.40550	0.02256
3780.44110	0.02319
3779.47670	0.02324
3778.51230	0.02276
3777.54791	0.02256
3776.58351	0.02276
3775.61911	0.02293
3774.65471	0.02297
3773.69031	0.02303
3772.72592	0.02324
3771.76152	0.02377
3770.79712	0.02450
3769.83272	0.02460
3768.86832	0.02396
3767.90392	0.02371
3766.93953	0.02419
3765.97513	0.02457
3765.01073	0.02425
3764.04633	0.02384
3763.08193	0.02390
3762.11753	0.02429
3761.15314	0.02498
3760.18874	0.02564
3759.22434	0.02558
3758.25994	0.02531
3757.29554	0.02540
3756.33115	0.02532
3755.36675	0.02517
3754.40235	0.02575
3753.43795	0.02713
3752.47355	0.02811
3751.50915	0.02781
3750.54476	0.02774
3749.58036	0.02779
3748.61596	0.02682
3747.65156	0.02626
3746.68716	0.02721
3745.72276	0.02935
3744.75837	0.03055
3743.79397	0.02854
3742.82957	0.02693
3741.86517	0.02693
3740.90077	0.02717
3739.93638	0.02713
3738.97198	0.02741
3738.00758	0.02829
3737.04318	0.02943
3736.07878	0.03020
3735.11438	0.03004
3734.14999	0.02941
3733.18559	0.02931
3732.22119	0.02942
3731.25679	0.02900
3730.29239	0.02854
3729.32799	0.02847
3728.36360	0.02886
3727.39920	0.02959
3726.43480	0.02994
3725.47040	0.02967
3724.50600	0.02941
3723.54161	0.02963
3722.57721	0.02997
3721.61281	0.02984
3720.64841	0.02956
3719.68401	0.02956
3718.71961	0.02962
3717.75522	0.02957
3716.79082	0.02960
3715.82642	0.02970
3714.86202	0.02991
3713.89762	0.03062
3712.93322	0.03172
3711.96883	0.03203
3711.00443	0.03151
3710.04003	0.03134
3709.07563	0.03113
3708.11123	0.03063
3707.14684	0.03057
3706.18244	0.03088
3705.21804	0.03107
3704.25364	0.03123
3703.28924	0.03168
3702.32484	0.03213
3701.36045	0.03194
3700.39605	0.03151
3699.43165	0.03140
3698.46725	0.03154
3697.50285	0.03183
3696.53845	0.03222
3695.57406	0.03256
3694.60966	0.03283
3693.64526	0.03318
3692.68086	0.03372
3691.71646	0.03423
3690.75207	0.03436
3689.78767	0.03460
3688.82327	0.03498
3687.85887	0.03452
3686.89447	0.03379
3685.93007	0.03365
3684.96568	0.03384
3684.00128	0.03406
3683.03688	0.03421
3682.07248	0.03440
3681.10808	0.03487
3680.14368	0.03541
3679.17929	0.03561
3678.21489	0.03590
3677.25049	0.03701
3676.28609	0.03855
3675.32169	0.03844
3674.35730	0.03676
3673.39290	0.03594
3672.42850	0.03655
3671.46410	0.03775
3670.49970	0.03825
3669.53530	0.03777
3668.57091	0.03706
3667.60651	0.03647
3666.64211	0.03631
3665.67771	0.03654
3664.71331	0.03680
3663.74891	0.03700
3662.78452	0.03714
3661.82012	0.03721
3660.85572	0.03722
3659.89132	0.03731
3658.92692	0.03766
3657.96252	0.03856
3656.99813	0.03971
3656.03373	0.03986
3655.06933	0.03919
3654.10493	0.03903
3653.14053	0.03954
3652.17614	0.04048
3651.21174	0.04167
3650.24734	0.04247
3649.28294	0.04256
3648.31854	0.04247
3647.35414	0.04228
3646.38975	0.04174
3645.42535	0.04126
3644.46095	0.04121
3643.49655	0.04148
3642.53215	0.04178
3641.56775	0.04204
3640.60336	0.04238
3639.63896	0.04283
3638.67456	0.04333
3637.71016	0.04380
3636.74576	0.04411
3635.78137	0.04440
3634.81697	0.04493
3633.85257	0.04544
3632.88817	0.04566
3631.92377	0.04611
3630.95937	0.04736
3629.99498	0.04906
3629.03058	0.04970
3628.06618	0.04888
3627.10178	0.04826
3626.13738	0.04825
3625.17298	0.04847
3624.20859	0.04884
3623.24419	0.04935
3622.27979	0.04999
3621.31539	0.05086
3620.35099	0.05183
3619.38660	0.05242
3618.42220	0.05257
3617.45780	0.05260
3616.49340	0.05271
3615.52900	0.05314
3614.56460	0.05383
3613.60021	0.05455
3612.63581	0.05503
3611.67141	0.05528
3610.70701	0.05593
3609.74261	0.05700
3608.77821	0.05769
3607.81382	0.05794
3606.84942	0.05803
3605.88502	0.05804
3604.92062	0.05826
3603.95622	0.05883
3602.99183	0.05959
3602.02743	0.06046
3601.06303	0.06119
3600.09863	0.06163
3599.13423	0.06205
3598.16983	0.06260
3597.20544	0.06327
3596.24104	0.06411
3595.27664	0.06484
3594.31224	0.06528
3593.34784	0.06565
3592.38344	0.06604
3591.41905	0.06659
3590.45465	0.06754
3589.49025	0.06871
3588.52585	0.06961
3587.56145	0.07002
3586.59706	0.07000
3585.63266	0.06988
3584.66826	0.07017
3583.70386	0.07085
3582.73946	0.07146
3581.77506	0.07186
3580.81067	0.07224
3579.84627	0.07270
3578.88187	0.07326
3577.91747	0.07397
3576.95307	0.07468
3575.98867	0.07537
3575.02428	0.07600
3574.05988	0.07636
3573.09548	0.07662
3572.13108	0.07710
3571.16668	0.07774
3570.20229	0.07849
3569.23789	0.07951
3568.27349	0.08058
3567.30909	0.08118
3566.34469	0.08125
3565.38029	0.08120
3564.41590	0.08143
3563.45150	0.08178
3562.48710	0.08201
3561.52270	0.08228
3560.55830	0.08272
3559.59390	0.08317
3558.62951	0.08351
3557.66511	0.08386
3556.70071	0.08432
3555.73631	0.08489
3554.77191	0.08552
3553.80752	0.08618
3552.84312	0.08681
3551.87872	0.08724
3550.91432	0.08743
3549.94992	0.08772
3548.98552	0.08829
3548.02113	0.08894
3547.05673	0.08936
3546.09233	0.08960
3545.12793	0.08990
3544.16353	0.09023
3543.19913	0.09054
3542.23474	0.09098
3541.27034	0.09156
3540.30594	0.09206
3539.34154	0.09239
3538.37714	0.09272
3537.41274	0.09314
3536.44835	0.09360
3535.48395	0.09408
3534.51955	0.09468
3533.55515	0.09525
3532.59075	0.09570
3531.62636	0.09615
3530.66196	0.09667
3529.69756	0.09715
3528.73316	0.09759
3527.76876	0.09807
3526.80436	0.09853
3525.83997	0.09891
3524.87557	0.09926
3523.91117	0.09966
3522.94677	0.10005
3521.98237	0.10037
3521.01797	0.10070
3520.05358	0.10110
3519.08918	0.10152
3518.12478	0.10191
3517.16038	0.10222
3516.19598	0.10250
3515.23159	0.10293
3514.26719	0.10345
3513.30279	0.10384
3512.33839	0.10414
3511.37399	0.10461
3510.40959	0.10528
3509.44520	0.10579
3508.48080	0.10602
3507.51640	0.10624
3506.55200	0.10662
3505.58760	0.10704
3504.62320	0.10735
3503.65881	0.10756
3502.69441	0.10781
3501.73001	0.10821
3500.76561	0.10867
3499.80121	0.10911
3498.83682	0.10951
3497.87242	0.10993
3496.90802	0.11044
3495.94362	0.11089
3494.97922	0.11113
3494.01482	0.11136
3493.05043	0.11173
3492.08603	0.11210
3491.12163	0.11243
3490.15723	0.11280
3489.19283	0.11325
3488.22843	0.11364
3487.26404	0.11391
3486.29964	0.11414
3485.33524	0.11439
3484.37084	0.11473
3483.40644	0.11525
3482.44205	0.11577
3481.47765	0.11609
3480.51325	0.11629
3479.54885	0.11658
3478.58445	0.11700
3477.62005	0.11739
3476.65566	0.11777
3475.69126	0.11827
3474.72686	0.11866
3473.76246	0.11885
3472.79806	0.11911
3471.83366	0.11956
3470.86927	0.11991
3469.90487	0.12002
3468.94047	0.12010
3467.97607	0.12036
3467.01167	0.12082
3466.04728	0.12134
3465.08288	0.12176
3464.11848	0.12210
3463.15408	0.12249
3462.18968	0.12290
3461.22528	0.12325
3460.26089	0.12356
3459.29649	0.12386
3458.33209	0.12412
3457.36769	0.12442
3456.40329	0.12477
3455.43889	0.12506
3454.47450	0.12530
3453.51010	0.12563
3452.54570	0.12598
3451.58130	0.12620
3450.61690	0.12636
3449.65251	0.12663
3448.68811	0.12706
3447.72371	0.12749
3446.75931	0.12765
3445.79491	0.12765
3444.83051	0.12775
3443.86612	0.12799
3442.90172	0.12823
3441.93732	0.12844
3440.97292	0.12867
3440.00852	0.12885
3439.04412	0.12886
3438.07973	0.12882
3437.11533	0.12883
3436.15093	0.12889
3435.18653	0.12900
3434.22213	0.12923
3433.25774	0.12954
3432.29334	0.12977
3431.32894	0.12981
3430.36454	0.12968
3429.40014	0.12963
3428.43574	0.12974
3427.47135	0.12994
3426.50695	0.13011
3425.54255	0.13015
3424.57815	0.13009
3423.61375	0.13004
3422.64935	0.12990
3421.68496	0.12968
3420.72056	0.12956
3419.75616	0.12956
3418.79176	0.12951
3417.82736	0.12938
3416.86296	0.12922
3415.89857	0.12905
3414.93417	0.12889
3413.96977	0.12874
3413.00537	0.12859
3412.04097	0.12846
3411.07658	0.12834
3410.11218	0.12820
3409.14778	0.12810
3408.18338	0.12811
3407.21898	0.12798
3406.25458	0.12765
3405.29019	0.12738
3404.32579	0.12728
3403.36139	0.12706
3402.39699	0.12658
3401.43259	0.12614
3400.46819	0.12593
3399.50380	0.12590
3398.53940	0.12591
3397.57500	0.12586
3396.61060	0.12570
3395.64620	0.12540
3394.68181	0.12509
3393.71741	0.12482
3392.75301	0.12448
3391.78861	0.12406
3390.82421	0.12373
3389.85981	0.12356
3388.89542	0.12345
3387.93102	0.12323
3386.96662	0.12293
3386.00222	0.12266
3385.03782	0.12239
3384.07342	0.12204
3383.10903	0.12163
3382.14463	0.12127
3381.18023	0.12100
3380.21583	0.12077
3379.25143	0.12046
3378.28704	0.11997
3377.32264	0.11939
3376.35824	0.11888
3375.39384	0.11845
3374.42944	0.11802
3373.46504	0.11750
3372.50065	0.11693
3371.53625	0.11635
3370.57185	0.11575
3369.60745	0.11521
3368.64305	0.11474
3367.67865	0.11427
3366.71426	0.11384
3365.74986	0.11352
3364.78546	0.11323
3363.82106	0.11295
3362.85666	0.11262
3361.89227	0.11211
3360.92787	0.11151
3359.96347	0.11100
3358.99907	0.11060
3358.03467	0.11026
3357.07027	0.10984
3356.10588	0.10929
3355.14148	0.10883
3354.17708	0.10848
3353.21268	0.10798
3352.24828	0.10728
3351.28388	0.10664
3350.31949	0.10626
3349.35509	0.10609
3348.39069	0.10593
3347.42629	0.10567
3346.46189	0.10533
3345.49750	0.10494
3344.53310	0.10447
3343.56870	0.10401
3342.60430	0.10367
3341.63990	0.10336
3340.67550	0.10295
3339.71111	0.10246
3338.74671	0.10207
3337.78231	0.10187
3336.81791	0.10174
3335.85351	0.10148
3334.88911	0.10114
3333.92472	0.10082
3332.96032	0.10052
3331.99592	0.10025
3331.03152	0.10005
3330.06712	0.09990
3329.10273	0.09962
3328.13833	0.09917
3327.17393	0.09873
3326.20953	0.09847
3325.24513	0.09834
3324.28073	0.09815
3323.31634	0.09784
3322.35194	0.09754
3321.38754	0.09732
3320.42314	0.09717
3319.45874	0.09702
3318.49434	0.09678
3317.52995	0.09649
3316.56555	0.09628
3315.60115	0.09622
3314.63675	0.09617
3313.67235	0.09596
3312.70795	0.09567
3311.74356	0.09543
3310.77916	0.09518
3309.81476	0.09488
3308.85036	0.09461
3307.88596	0.09435
3306.92157	0.09412
3305.95717	0.09402
3304.99277	0.09402
3304.02837	0.09399
3303.06397	0.09389
3302.09957	0.09383
3301.13518	0.09387
3300.17078	0.09391
3299.20638	0.09381
3298.24198	0.09361
3297.27758	0.09342
3296.31318	0.09326
3295.34879	0.09310
3294.38439	0.09300
3293.41999	0.09293
3292.45559	0.09281
3291.49119	0.09272
3290.52680	0.09274
3289.56240	0.09282
3288.59800	0.09291
3287.63360	0.09298
3286.66920	0.09296
3285.70480	0.09292
3284.74041	0.09291
3283.77601	0.09289
3282.81161	0.09278
3281.84721	0.09265
3280.88281	0.09261
3279.91841	0.09259
3278.95402	0.09249
3277.98962	0.09238
3277.02522	0.09228
3276.06082	0.09217
3275.09642	0.09214
3274.13203	0.09222
3273.16763	0.09225
3272.20323	0.09214
3271.23883	0.09206
3270.27443	0.09214
3269.31003	0.09227
3268.34564	0.09222
3267.38124	0.09208
3266.41684	0.09206
3265.45244	0.09209
3264.48804	0.09209
3263.52364	0.09216
3262.55925	0.09224
3261.59485	0.09222
3260.63045	0.09214
3259.66605	0.09202
3258.70165	0.09190
3257.73726	0.09185
3256.77286	0.09178
3255.80846	0.09172
3254.84406	0.09177
3253.87966	0.09183
3252.91526	0.09182
3251.95087	0.09178
3250.98647	0.09177
3250.02207	0.09175
3249.05767	0.09162
3248.09327	0.09134
3247.12887	0.09116
3246.16448	0.09121
3245.20008	0.09132
3244.23568	0.09138
3243.27128	0.09144
3242.30688	0.09144
3241.34249	0.09133
3240.37809	0.09116
3239.41369	0.09106
3238.44929	0.09106
3237.48489	0.09105
3236.52049	0.09095
3235.55610	0.09074
3234.59170	0.09048
3233.62730	0.09029
3232.66290	0.09029
3231.69850	0.09036
3230.73410	0.09036
3229.76971	0.09032
3228.80531	0.09033
3227.84091	0.09036
3226.87651	0.09031
3225.91211	0.09022
3224.94772	0.09019
3223.98332	0.09017
3223.01892	0.09007
3222.05452	0.08991
3221.09012	0.08977
3220.12572	0.08972
3219.16133	0.08974
3218.19693	0.08976
3217.23253	0.08973
3216.26813	0.08971
3215.30373	0.08970
3214.33933	0.08958
3213.37494	0.08941
3212.41054	0.08929
3211.44614	0.08927
3210.48174	0.08928
3209.51734	0.08926
3208.55295	0.08923
3207.58855	0.08922
3206.62415	0.08922
3205.65975	0.08915
3204.69535	0.08903
3203.73095	0.08892
3202.76656	0.08886
3201.80216	0.08886
3200.83776	0.08886
3199.87336	0.08883
3198.90896	0.08882
3197.94456	0.08884
3196.98017	0.08881
3196.01577	0.08873
3195.05137	0.08870
3194.08697	0.08866
3193.12257	0.08855
3192.15817	0.08842
3191.19378	0.08834
3190.22938	0.08828
3189.26498	0.08825
3188.30058	0.08826
3187.33618	0.08831
3186.37179	0.08833
3185.40739	0.08825
3184.44299	0.08815
3183.47859	0.08811
3182.51419	0.08810
3181.54979	0.08809
3180.58540	0.08810
3179.62100	0.08809
3178.65660	0.08809
3177.69220	0.08809
3176.72780	0.08802
3175.76340	0.08790
3174.79901	0.08780
3173.83461	0.08778
3172.87021	0.08783
3171.90581	0.08788
3170.94141	0.08791
3169.97702	0.08788
3169.01262	0.08783
3168.04822	0.08779
3167.08382	0.08774
3166.11942	0.08767
3165.15502	0.08762
3164.19063	0.08764
3163.22623	0.08768
3162.26183	0.08771
3161.29743	0.08778
3160.33303	0.08788
3159.36863	0.08793
3158.40424	0.08787
3157.43984	0.08776
3156.47544	0.08772
3155.51104	0.08771
3154.54664	0.08762
3153.58225	0.08744
3152.61785	0.08736
3151.65345	0.08746
3150.68905	0.08762
3149.72465	0.08776
3148.76025	0.08786
3147.79586	0.08790
3146.83146	0.08788
3145.86706	0.08785
3144.90266	0.08793
3143.93826	0.08808
3142.97386	0.08811
3142.00947	0.08800
3141.04507	0.08784
3140.08067	0.08769
3139.11627	0.08765
3138.15187	0.08772
3137.18748	0.08783
3136.22308	0.08794
3135.25868	0.08806
3134.29428	0.08815
3133.32988	0.08823
3132.36548	0.08825
3131.40109	0.08821
3130.43669	0.08816
3129.47229	0.08817
3128.50789	0.08824
3127.54349	0.08836
3126.57909	0.08846
3125.61470	0.08843
3124.65030	0.08838
3123.68590	0.08840
3122.72150	0.08839
3121.75710	0.08823
3120.79271	0.08808
3119.82831	0.08808
3118.86391	0.08811
3117.89951	0.08805
3116.93511	0.08808
3115.97071	0.08826
3115.00632	0.08846
3114.04192	0.08862
3113.07752	0.08875
3112.11312	0.08882
3111.14872	0.08880
3110.18432	0.08871
3109.21993	0.08864
3108.25553	0.08872
3107.29113	0.08892
3106.32673	0.08909
3105.36233	0.08914
3104.39794	0.08910
3103.43354	0.08906
3102.46914	0.08907
3101.50474	0.08910
3100.54034	0.08914
3099.57594	0.08922
3098.61155	0.08933
3097.64715	0.08940
3096.68275	0.08941
3095.71835	0.08941
3094.75395	0.08947
3093.78955	0.08959
3092.82516	0.08965
3091.86076	0.08960
3090.89636	0.08958
3089.93196	0.08969
3088.96756	0.08986
3088.00317	0.08993
3087.03877	0.08992
3086.07437	0.08990
3085.10997	0.08986
3084.14557	0.08980
3083.18117	0.08980
3082.21678	0.08979
3081.25238	0.08978
3080.28798	0.08987
3079.32358	0.08997
3078.35918	0.09003
3077.39478	0.09018
3076.43039	0.09043
3075.46599	0.09069
3074.50159	0.09094
3073.53719	0.09113
3072.57279	0.09123
3071.60839	0.09130
3070.64400	0.09137
3069.67960	0.09138
3068.71520	0.09129
3067.75080	0.09127
3066.78640	0.09140
3065.82201	0.09153
3064.85761	0.09155
3063.89321	0.09153
3062.92881	0.09154
3061.96441	0.09163
3061.00001	0.09171
3060.03562	0.09170
3059.07122	0.09164
3058.10682	0.09164
3057.14242	0.09169
3056.17802	0.09176
3055.21362	0.09185
3054.24923	0.09197
3053.28483	0.09211
3052.32043	0.09215
3051.35603	0.09213
3050.39163	0.09218
3049.42724	0.09229
3048.46284	0.09238
3047.49844	0.09240
3046.53404	0.09234
3045.56964	0.09230
3044.60524	0.09231
3043.64085	0.09231
3042.67645	0.09227
3041.71205	0.09224
3040.74765	0.09226
3039.78325	0.09239
3038.81885	0.09261
3037.85446	0.09277
3036.89006	0.09277
3035.92566	0.09268
3034.96126	0.09262
3033.99686	0.09264
3033.03247	0.09276
3032.06807	0.09291
3031.10367	0.09297
3030.13927	0.09299
3029.17487	0.09310
3028.21047	0.09328
3027.24608	0.09342
3026.28168	0.09350
3025.31728	0.09355
3024.35288	0.09359
3023.38848	0.09361
3022.42408	0.09357
3021.45969	0.09353
3020.49529	0.09357
3019.53089	0.09367
3018.56649	0.09379
3017.60209	0.09384
3016.63770	0.09384
3015.67330	0.09379
3014.70890	0.09374
3013.74450	0.09378
3012.78010	0.09387
3011.81570	0.09393
3010.85131	0.09405
3009.88691	0.09427
3008.92251	0.09446
3007.95811	0.09457
3006.99371	0.09461
3006.02931	0.09464
3005.06492	0.09471
3004.10052	0.09478
3003.13612	0.09489
3002.17172	0.09501
3001.20732	0.09507
3000.24293	0.09509
2999.27853	0.09505
2998.31413	0.09495
2997.34973	0.09492
2996.38533	0.09503
2995.42093	0.09513
2994.45654	0.09512
2993.49214	0.09508
2992.52774	0.09518
2991.56334	0.09544
2990.59894	0.09567
2989.63454	0.09576
2988.67015	0.09578
2987.70575	0.09582
2986.74135	0.09590
2985.77695	0.09597
2984.81255	0.09603
2983.84816	0.09603
2982.88376	0.09599
2981.91936	0.09603
2980.95496	0.09615
2979.99056	0.09626
2979.02616	0.09637
2978.06177	0.09653
2977.09737	0.09669
2976.13297	0.09682
2975.16857	0.09696
2974.20417	0.09713
2973.23977	0.09733
2972.27538	0.09752
2971.31098	0.09767
2970.34658	0.09776
2969.38218	0.09783
2968.41778	0.09792
2967.45339	0.09809
2966.48899	0.09830
2965.52459	0.09851
2964.56019	0.09870
2963.59579	0.09885
2962.63139	0.09894
2961.66700	0.09897
2960.70260	0.09898
2959.73820	0.09904
2958.77380	0.09915
2957.80940	0.09923
2956.84500	0.09924
2955.88061	0.09926
2954.91621	0.09926
2953.95181	0.09915
2952.98741	0.09898
2952.02301	0.09899
2951.05861	0.09918
2950.09422	0.09933
2949.12982	0.09938
2948.16542	0.09936
2947.20102	0.09934
2946.23662	0.09939
2945.27223	0.09942
2944.30783	0.09946
2943.34343	0.09965
2942.37903	0.09996
2941.41463	0.10019
2940.45023	0.10033
2939.48584	0.10045
2938.52144	0.10062
2937.55704	0.10079
2936.59264	0.10093
2935.62824	0.10105
2934.66384	0.10120
2933.69945	0.10140
2932.73505	0.10161
2931.77065	0.10175
2930.80625	0.10181
2929.84185	0.10189
2928.87746	0.10211
2927.91306	0.10243
2926.94866	0.10270
2925.98426	0.10288
2925.01986	0.10299
2924.05546	0.10307
2923.09107	0.10310
2922.12667	0.10312
2921.16227	0.10312
2920.19787	0.10309
2919.23347	0.10300
2918.26907	0.10282
2917.30468	0.10263
2916.34028	0.10255
2915.37588	0.10248
2914.41148	0.10229
2913.44708	0.10215
2912.48269	0.10221
2911.51829	0.10229
2910.55389	0.10232
2909.58949	0.10237
2908.62509	0.10243
2907.66069	0.10246
2906.69630	0.10247
2905.73190	0.10246
2904.76750	0.10242
2903.80310	0.10240
2902.83870	0.10240
2901.87430	0.10241
2900.90991	0.10246
2899.94551	0.10253
2898.98111	0.10254
2898.01671	0.10249
2897.05231	0.10245
2896.08792	0.10245
2895.12352	0.10252
2894.15912	0.10259
2893.19472	0.10259
2892.23032	0.10257
2891.26592	0.10264
2890.30153	0.10278
2889.33713	0.10283
2888.37273	0.10281
2887.40833	0.10280
2886.44393	0.10283
2885.47953	0.10289
2884.51514	0.10294
2883.55074	0.10297
2882.58634	0.10301
2881.62194	0.10309
2880.65754	0.10317
2879.69315	0.10327
2878.72875	0.10337
2877.76435	0.10339
2876.79995	0.10340
2875.83555	0.10342
2874.87115	0.10340
2873.90676	0.10337
2872.94236	0.10346
2871.97796	0.10366
2871.01356	0.10381
2870.04916	0.10391
2869.08476	0.10400
2868.12037	0.10404
2867.15597	0.10406
2866.19157	0.10413
2865.22717	0.10425
2864.26277	0.10440
2863.29838	0.10456
2862.33398	0.10467
2861.36958	0.10469
2860.40518	0.10472
2859.44078	0.10486
2858.47638	0.10508
2857.51199	0.10531
2856.54759	0.10548
2855.58319	0.10560
2854.61879	0.10568
2853.65439	0.10573
2852.68999	0.10578
2851.72560	0.10582
2850.76120	0.10576
2849.79680	0.10563
2848.83240	0.10554
2847.86800	0.10550
2846.90360	0.10550
2845.93921	0.10550
2844.97481	0.10546
2844.01041	0.10540
2843.04601	0.10532
2842.08161	0.10526
2841.11722	0.10516
2840.15282	0.10501
2839.18842	0.10488
2838.22402	0.10491
2837.25962	0.10505
2836.29522	0.10520
2835.33083	0.10531
2834.36643	0.10534
2833.40203	0.10534
2832.43763	0.10538
2831.47323	0.10543
2830.50883	0.10543
2829.54444	0.10542
2828.58004	0.10545
2827.61564	0.10553
2826.65124	0.10559
2825.68684	0.10566
2824.72245	0.10575
2823.75805	0.10584
2822.79365	0.10593
2821.82925	0.10601
2820.86485	0.10604
2819.90045	0.10606
2818.93606	0.10612
2817.97166	0.10619
2817.00726	0.10623
2816.04286	0.10621
2815.07846	0.10619
2814.11406	0.10626
2813.14967	0.10636
2812.18527	0.10642
2811.22087	0.10642
2810.25647	0.10644
2809.29207	0.10648
2808.32768	0.10653
2807.36328	0.10661
2806.39888	0.10671
2805.43448	0.10679
2804.47008	0.10686
2803.50568	0.10699
2802.54129	0.10711
2801.57689	0.10714
2800.61249	0.10711
2799.64809	0.10707
2798.68369	0.10707
2797.71929	0.10713
2796.75490	0.10721
2795.79050	0.10726
2794.82610	0.10732
2793.86170	0.10742
2792.89730	0.10750
2791.93291	0.10753
2790.96851	0.10757
2790.00411	0.10758
2789.03971	0.10759
2788.07531	0.10767
2787.11091	0.10781
2786.14652	0.10791
2785.18212	0.10795
2784.21772	0.10801
2783.25332	0.10810
2782.28892	0.10816
2781.32452	0.10819
2780.36013	0.10824
2779.39573	0.10832
2778.43133	0.10837
2777.46693	0.10839
2776.50253	0.10840
2775.53814	0.10841
2774.57374	0.10847
2773.60934	0.10857
2772.64494	0.10866
2771.68054	0.10870
2770.71614	0.10874
2769.75175	0.10879
2768.78735	0.10890
2767.82295	0.10903
2766.85855	0.10911
2765.89415	0.10913
2764.92975	0.10919
2763.96536	0.10929
2763.00096	0.10938
2762.03656	0.10943
2761.07216	0.10949
2760.10776	0.10954
2759.14337	0.10962
2758.17897	0.10968
2757.21457	0.10969
2756.25017	0.10972
2755.28577	0.10980
2754.32137	0.10987
2753.35698	0.10991
2752.39258	0.10996
2751.42818	0.11003
2750.46378	0.11008
2749.49938	0.11016
2748.53498	0.11026
2747.57059	0.11032
2746.60619	0.11038
2745.64179	0.11047
2744.67739	0.11055
2743.71299	0.11062
2742.74860	0.11070
2741.78420	0.11080
2740.81980	0.11089
2739.85540	0.11093
2738.89100	0.11093
2737.92660	0.11097
2736.96221	0.11107
2735.99781	0.11119
2735.03341	0.11126
2734.06901	0.11130
2733.10461	0.11134
2732.14021	0.11136
2731.17582	0.11139
2730.21142	0.11146
2729.24702	0.11156
2728.28262	0.11165
2727.31822	0.11168
2726.35382	0.11165
2725.38943	0.11167
2724.42503	0.11176
2723.46063	0.11184
2722.49623	0.11191
2721.53183	0.11202
2720.56744	0.11214
2719.60304	0.11221
2718.63864	0.11227
2717.67424	0.11235
2716.70984	0.11241
2715.74544	0.11245
2714.78105	0.11250
2713.81665	0.11260
2712.85225	0.11267
2711.88785	0.11265
2710.92345	0.11262
2709.95905	0.11267
2708.99466	0.11276
2708.03026	0.11283
2707.06586	0.11292
2706.10146	0.11301
2705.13706	0.11308
2704.17267	0.11311
2703.20827	0.11313
2702.24387	0.11321
2701.27947	0.11331
2700.31507	0.11333
2699.35067	0.11333
2698.38628	0.11340
2697.42188	0.11348
2696.45748	0.11353
2695.49308	0.11360
2694.52868	0.11368
2693.56428	0.11377
2692.59989	0.11384
2691.63549	0.11389
2690.67109	0.11394
2689.70669	0.11400
2688.74229	0.11404
2687.77790	0.11407
2686.81350	0.11412
2685.84910	0.11415
2684.88470	0.11418
2683.92030	0.11423
2682.95590	0.11428
2681.99151	0.11433
2681.02711	0.11437
2680.06271	0.11441
2679.09831	0.11445
2678.13391	0.11449
2677.16951	0.11453
2676.20512	0.11461
2675.24072	0.11468
2674.27632	0.11472
2673.31192	0.11476
2672.34752	0.11485
2671.38313	0.11496
2670.41873	0.11506
2669.45433	0.11515
2668.48993	0.11521
2667.52553	0.11520
2666.56113	0.11521
2665.59674	0.11528
2664.63234	0.11537
2663.66794	0.11544
2662.70354	0.11551
2661.73914	0.11557
2660.77474	0.11561
2659.81035	0.11565
2658.84595	0.11572
2657.88155	0.11578
2656.91715	0.11582
2655.95275	0.11588
2654.98836	0.11594
2654.02396	0.11599
2653.05956	0.11602
2652.09516	0.11604
2651.13076	0.11609
2650.16636	0.11616
2649.20197	0.11624
2648.23757	0.11630
2647.27317	0.11636
2646.30877	0.11644
2645.34437	0.11653
2644.37997	0.11658
2643.41558	0.11658
2642.45118	0.11662
2641.48678	0.11667
2640.52238	0.11670
2639.55798	0.11674
2638.59359	0.11683
2637.62919	0.11691
2636.66479	0.11697
2635.70039	0.11704
2634.73599	0.11709
2633.77159	0.11713
2632.80720	0.11716
2631.84280	0.11717
2630.87840	0.11717
2629.91400	0.11722
2628.94960	0.11731
2627.98520	0.11739
2627.02081	0.11742
2626.05641	0.11743
2625.09201	0.11747
2624.12761	0.11751
2623.16321	0.11760
2622.19882	0.11769
2621.23442	0.11775
2620.27002	0.11776
2619.30562	0.11778
2618.34122	0.11783
2617.37682	0.11788
2616.41243	0.11795
2615.44803	0.11806
2614.48363	0.11816
2613.51923	0.11820
2612.55483	0.11821
2611.59043	0.11823
2610.62604	0.11826
2609.66164	0.11831
2608.69724	0.11837
2607.73284	0.11844
2606.76844	0.11850
2605.80404	0.11855
2604.83965	0.11860
2603.87525	0.11865
2602.91085	0.11872
2601.94645	0.11880
2600.98205	0.11887
2600.01766	0.11892
2599.05326	0.11898
2598.08886	0.11904
2597.12446	0.11905
2596.16006	0.11905
2595.19566	0.11910
2594.23127	0.11920
2593.26687	0.11929
2592.30247	0.11939
2591.33807	0.11949
2590.37367	0.11959
2589.40927	0.11970
2588.44488	0.11976
2587.48048	0.11978
2586.51608	0.11984
2585.55168	0.11994
2584.58728	0.11999
2583.62289	0.12002
2582.65849	0.12010
2581.69409	0.12019
2580.72969	0.12028
2579.76529	0.12037
2578.80089	0.12047
2577.83650	0.12057
2576.87210	0.12064
2575.90770	0.12068
2574.94330	0.12072
2573.97890	0.12077
2573.01450	0.12084
2572.05011	0.12090
2571.08571	0.12096
2570.12131	0.12105
2569.15691	0.12114
2568.19251	0.12118
2567.22812	0.12116
2566.26372	0.12116
2565.29932	0.12118
2564.33492	0.12120
2563.37052	0.12120
2562.40612	0.12120
2561.44173	0.12123
2560.47733	0.12129
2559.51293	0.12132
2558.54853	0.12131
2557.58413	0.12129
2556.61973	0.12130
2555.65534	0.12132
2554.69094	0.12135
2553.72654	0.12139
2552.76214	0.12141
2551.79774	0.12143
2550.83335	0.12148
2549.86895	0.12157
2548.90455	0.12164
2547.94015	0.12165
2546.97575	0.12162
2546.01135	0.12163
2545.04696	0.12171
2544.08256	0.12179
2543.11816	0.12183
2542.15376	0.12187
2541.18936	0.12193
2540.22496	0.12197
2539.26057	0.12199
2538.29617	0.12200
2537.33177	0.12203
2536.36737	0.12208
2535.40297	0.12215
2534.43858	0.12223
2533.47418	0.12223
2532.50978	0.12219
2531.54538	0.12220
2530.58098	0.12228
2529.61658	0.12238
2528.65219	0.12244
2527.68779	0.12247
2526.72339	0.12248
2525.75899	0.12250
2524.79459	0.12257
2523.83019	0.12267
2522.86580	0.12276
2521.90140	0.12281
2520.93700	0.12284
2519.97260	0.12288
2519.00820	0.12294
2518.04381	0.12298
2517.07941	0.12298
2516.11501	0.12298
2515.15061	0.12302
2514.18621	0.12308
2513.22181	0.12317
2512.25742	0.12326
2511.29302	0.12331
2510.32862	0.12332
2509.36422	0.12336
2508.39982	0.12344
2507.43542	0.12351
2506.47103	0.12352
2505.50663	0.12352
2504.54223	0.12357
2503.57783	0.12366
2502.61343	0.12373
2501.64904	0.12375
2500.68464	0.12381
2499.72024	0.12388
2498.75584	0.12392
2497.79144	0.12394
2496.82704	0.12399
2495.86265	0.12405
2494.89825	0.12411
2493.93385	0.12417
2492.96945	0.12424
2492.00505	0.12429
2491.04065	0.12432
2490.07626	0.12434
2489.11186	0.12439
2488.14746	0.12447
2487.18306	0.12452
2486.21866	0.12457
2485.25426	0.12463
2484.28987	0.12468
2483.32547	0.12472
2482.36107	0.12477
2481.39667	0.12481
2480.43227	0.12482
2479.46788	0.12482
2478.50348	0.12482
2477.53908	0.12484
2476.57468	0.12487
2475.61028	0.12495
2474.64588	0.12507
2473.68149	0.12516
2472.71709	0.12517
2471.75269	0.12515
2470.78829	0.12516
2469.82389	0.12524
2468.85949	0.12533
2467.89510	0.12541
2466.93070	0.12549
2465.96630	0.12555
2465.00190	0.12559
2464.03750	0.12562
2463.07311	0.12567
2462.10871	0.12570
2461.14431	0.12571
2460.17991	0.12573
2459.21551	0.12578
2458.25111	0.12584
2457.28672	0.12592
2456.32232	0.12599
2455.35792	0.12602
2454.39352	0.12605
2453.42912	0.12609
2452.46472	0.12612
2451.50033	0.12617
2450.53593	0.12622
2449.57153	0.12625
2448.60713	0.12627
2447.64273	0.12631
2446.67834	0.12635
2445.71394	0.12639
2444.74954	0.12644
2443.78514	0.12652
2442.82074	0.12658
2441.85634	0.12662
2440.89195	0.12665
2439.92755	0.12671
2438.96315	0.12677
2437.99875	0.12681
2437.03435	0.12687
2436.06995	0.12691
2435.10556	0.12694
2434.14116	0.12700
2433.17676	0.12709
2432.21236	0.12714
2431.24796	0.12715
2430.28357	0.12717
2429.31917	0.12725
2428.35477	0.12734
2427.39037	0.12739
2426.42597	0.12744
2425.46157	0.12750
2424.49718	0.12754
2423.53278	0.12758
2422.56838	0.12761
2421.60398	0.12763
2420.63958	0.12763
2419.67518	0.12768
2418.71079	0.12777
2417.74639	0.12783
2416.78199	0.12786
2415.81759	0.12789
2414.85319	0.12789
2413.88880	0.12789
2412.92440	0.12792
2411.96000	0.12798
2410.99560	0.12805
2410.03120	0.12813
2409.06680	0.12819
2408.10241	0.12823
2407.13801	0.12826
2406.17361	0.12830
2405.20921	0.12834
2404.24481	0.12838
2403.28041	0.12843
2402.31602	0.12846
2401.35162	0.12848
2400.38722	0.12851
2399.42282	0.12856
2398.45842	0.12861
2397.49403	0.12865
2396.52963	0.12869
2395.56523	0.12875
2394.60083	0.12880
2393.63643	0.12885
2392.67203	0.12893
2391.70764	0.12901
2390.74324	0.12907
2389.77884	0.12913
2388.81444	0.12921
2387.85004	0.12931
2386.88564	0.12946
2385.92125	0.12966
2384.95685	0.12994
2383.99245	0.13032
2383.02805	0.13078
2382.06365	0.13129
2381.09925	0.13185
2380.13486	0.13244
2379.17046	0.13308
2378.20606	0.13377
2377.24166	0.13445
2376.27726	0.13510
2375.31287	0.13578
2374.34847	0.13652
2373.38407	0.13728
2372.41967	0.13805
2371.45527	0.13886
2370.49087	0.13973
2369.52648	0.14060
2368.56208	0.14147
2367.59768	0.14232
2366.63328	0.14317
2365.66888	0.14402
2364.70448	0.14477
2363.74009	0.14533
2362.77569	0.14562
2361.81129	0.14566
2360.84689	0.14573
2359.88249	0.14594
2358.91810	0.14598
2357.95370	0.14569
2356.98930	0.14522
2356.02490	0.14463
2355.06050	0.14380
2354.09610	0.14276
2353.13171	0.14173
2352.16731	0.14066
2351.20291	0.13943
2350.23851	0.13819
2349.27411	0.13753
2348.30971	0.13795
2347.34532	0.13922
2346.38092	0.14060
2345.41652	0.14164
2344.45212	0.14221
2343.48772	0.14242
2342.52333	0.14252
2341.55893	0.14258
2340.59453	0.14249
2339.63013	0.14217
2338.66573	0.14190
2337.70133	0.14195
2336.73694	0.14197
2335.77254	0.14164
2334.80814	0.14143
2333.84374	0.14155
2332.87934	0.14173
2331.91494	0.14182
2330.95055	0.14179
2329.98615	0.14157
2329.02175	0.14123
2328.05735	0.14088
2327.09295	0.14057
2326.12856	0.14038
2325.16416	0.14033
2324.19976	0.14029
2323.23536	0.14015
2322.27096	0.13993
2321.30656	0.13964
2320.34217	0.13922
2319.37777	0.13876
2318.41337	0.13829
2317.44897	0.13785
2316.48457	0.13754
2315.52017	0.13735
2314.55578	0.13723
2313.59138	0.13713
2312.62698	0.13702
2311.66258	0.13687
2310.69818	0.13664
2309.73379	0.13640
2308.76939	0.13617
2307.80499	0.13589
2306.84059	0.13560
2305.87619	0.13534
2304.91179	0.13516
2303.94740	0.13505
2302.98300	0.13497
2302.01860	0.13489
2301.05420	0.13480
2300.08980	0.13468
2299.12540	0.13455
2298.16101	0.13445
2297.19661	0.13439
2296.23221	0.13434
2295.26781	0.13427
2294.30341	0.13422
2293.33902	0.13417
2292.37462	0.13408
2291.41022	0.13399
2290.44582	0.13390
2289.48142	0.13383
2288.51702	0.13376
2287.55263	0.13371
2286.58823	0.13368
2285.62383	0.13364
2284.65943	0.13361
2283.69503	0.13362
2282.73063	0.13365
2281.76624	0.13368
2280.80184	0.13374
2279.83744	0.13381
2278.87304	0.13387
2277.90864	0.13393
2276.94425	0.13397
2275.97985	0.13399
2275.01545	0.13401
2274.05105	0.13406
2273.08665	0.13413
2272.12225	0.13417
2271.15786	0.13415
2270.19346	0.13414
2269.22906	0.13415
2268.26466	0.13417
2267.30026	0.13419
2266.33586	0.13423
2265.37147	0.13427
2264.40707	0.13429
2263.44267	0.13430
2262.47827	0.13434
2261.51387	0.13438
2260.54947	0.13437
2259.58508	0.13432
2258.62068	0.13431
2257.65628	0.13433
2256.69188	0.13436
2255.72748	0.13438
2254.76309	0.13438
2253.79869	0.13437
2252.83429	0.13438
2251.86989	0.13442
2250.90549	0.13445
2249.94109	0.13445
2248.97670	0.13443
2248.01230	0.13443
2247.04790	0.13447
2246.08350	0.13453
2245.11910	0.13456
2244.15470	0.13459
2243.19031	0.13460
2242.22591	0.13460
2241.26151	0.13458
2240.29711	0.13458
2239.33271	0.13461
2238.36832	0.13465
2237.40392	0.13467
2236.43952	0.13469
2235.47512	0.13471
2234.51072	0.13476
2233.54632	0.13480
2232.58193	0.13482
2231.61753	0.13485
2230.65313	0.13490
2229.68873	0.13496
2228.72433	0.13500
2227.75993	0.13500
2226.79554	0.13498
2225.83114	0.13498
2224.86674	0.13499
2223.90234	0.13502
2222.93794	0.13508
2221.97355	0.13516
2221.00915	0.13519
2220.04475	0.13520
2219.08035	0.13521
2218.11595	0.13522
2217.15155	0.13527
2216.18716	0.13534
2215.22276	0.13536
2214.25836	0.13535
2213.29396	0.13535
2212.32956	0.13539
2211.36516	0.13546
2210.40077	0.13555
2209.43637	0.13560
2208.47197	0.13561
2207.50757	0.13561
2206.54317	0.13563
2205.57878	0.13566
2204.61438	0.13567
2203.64998	0.13568
2202.68558	0.13569
2201.72118	0.13573
2200.75678	0.13581
2199.79239	0.13588
2198.82799	0.13589
2197.86359	0.13588
2196.89919	0.13590
2195.93479	0.13594
2194.97039	0.13598
2194.00600	0.13601
2193.04160	0.13604
2192.07720	0.13606
2191.11280	0.13608
2190.14840	0.13608
2189.18401	0.13609
2188.21961	0.13616
2187.25521	0.13623
2186.29081	0.13627
2185.32641	0.13627
2184.36201	0.13630
2183.39762	0.13634
2182.43322	0.13638
2181.46882	0.13641
2180.50442	0.13644
2179.54002	0.13647
2178.57562	0.13651
2177.61123	0.13654
2176.64683	0.13655
2175.68243	0.13659
2174.71803	0.13665
2173.75363	0.13671
2172.78924	0.13677
2171.82484	0.13682
2170.86044	0.13686
2169.89604	0.13691
2168.93164	0.13695
2167.96724	0.13695
2167.00285	0.13695
2166.03845	0.13697
2165.07405	0.13701
2164.10965	0.13708
2163.14525	0.13713
2162.18085	0.13716
2161.21646	0.13717
2160.25206	0.13718
2159.28766	0.13719
2158.32326	0.13722
2157.35886	0.13727
2156.39447	0.13734
2155.43007	0.13738
2154.46567	0.13736
2153.50127	0.13733
2152.53687	0.13736
2151.57247	0.13741
2150.60808	0.13745
2149.64368	0.13749
2148.67928	0.13755
2147.71488	0.13759
2146.75048	0.13760
2145.78608	0.13763
2144.82169	0.13767
2143.85729	0.13770
2142.89289	0.13773
2141.92849	0.13775
2140.96409	0.13779
2139.99969	0.13782
2139.03530	0.13784
2138.07090	0.13788
2137.10650	0.13795
2136.14210	0.13799
2135.17770	0.13801
2134.21331	0.13803
2133.24891	0.13804
2132.28451	0.13805
2131.32011	0.13806
2130.35571	0.13807
2129.39131	0.13809
2128.42692	0.13809
2127.46252	0.13811
2126.49812	0.13818
2125.53372	0.13825
2124.56932	0.13830
2123.60492	0.13830
2122.64053	0.13829
2121.67613	0.13828
2120.71173	0.13831
2119.74733	0.13836
2118.78293	0.13841
2117.81854	0.13844
2116.85414	0.13845
2115.88974	0.13848
2114.92534	0.13852
2113.96094	0.13855
2112.99654	0.13856
2112.03215	0.13857
2111.06775	0.13860
2110.10335	0.13862
2109.13895	0.13865
2108.17455	0.13864
2107.21015	0.13864
2106.24576	0.13869
2105.28136	0.13875
2104.31696	0.13878
2103.35256	0.13878
2102.38816	0.13879
2101.42377	0.13881
2100.45937	0.13885
2099.49497	0.13889
2098.53057	0.13892
2097.56617	0.13894
2096.60177	0.13895
2095.63738	0.13896
2094.67298	0.13898
2093.70858	0.13902
2092.74418	0.13903
2091.77978	0.13904
2090.81538	0.13906
2089.85099	0.13909
2088.88659	0.13911
2087.92219	0.13913
2086.95779	0.13915
2085.99339	0.13917
2085.02900	0.13919
2084.06460	0.13920
2083.10020	0.13920
2082.13580	0.13924
2081.17140	0.13930
2080.20700	0.13933
2079.24261	0.13935
2078.27821	0.13937
2077.31381	0.13938
2076.34941	0.13935
2075.38501	0.13932
2074.42061	0.13933
2073.45622	0.13936
2072.49182	0.13938
2071.52742	0.13938
2070.56302	0.13936
2069.59862	0.13935
2068.63423	0.13934
2067.66983	0.13935
2066.70543	0.13937
2065.74103	0.13941
2064.77663	0.13943
2063.81223	0.13943
2062.84784	0.13944
2061.88344	0.13945
2060.91904	0.13944
2059.95464	0.13941
2058.99024	0.13938
2058.02584	0.13936
2057.06145	0.13936
2056.09705	0.13937
2055.13265	0.13938
2054.16825	0.13938
2053.20385	0.13940
2052.23946	0.13942
2051.27506	0.13943
2050.31066	0.13942
2049.34626	0.13942
2048.38186	0.13943
2047.41746	0.13943
2046.45307	0.13943
2045.48867	0.13943
2044.52427	0.13946
2043.55987	0.13947
2042.59547	0.13945
2041.63107	0.13943
2040.66668	0.13941
2039.70228	0.13940
2038.73788	0.13939
2037.77348	0.13938
2036.80908	0.13937
2035.84469	0.13939
2034.88029	0.13942
2033.91589	0.13945
2032.95149	0.13944
2031.98709	0.13941
2031.02269	0.13938
2030.05830	0.13935
2029.09390	0.13933
2028.12950	0.13933
2027.16510	0.13935
2026.20070	0.13935
2025.23630	0.13933
2024.27191	0.13930
2023.30751	0.13928
2022.34311	0.13928
2021.37871	0.13929
2020.41431	0.13930
2019.44991	0.13931
2018.48552	0.13932
2017.52112	0.13932
2016.55672	0.13927
2015.59232	0.13922
2014.62792	0.13919
2013.66353	0.13919
2012.69913	0.13919
2011.73473	0.13920
2010.77033	0.13919
2009.80593	0.13914
2008.84153	0.13911
2007.87714	0.13910
2006.91274	0.13910
2005.94834	0.13909
2004.98394	0.13907
2004.01954	0.13903
2003.05514	0.13901
2002.09075	0.13900
2001.12635	0.13898
2000.16195	0.13894
1999.19755	0.13893
1998.23315	0.13893
1997.26876	0.13893
1996.30436	0.13892
1995.33996	0.13892
1994.37556	0.13895
1993.41116	0.13905
1992.44676	0.13913
1991.48237	0.13903
1990.51797	0.13887
1989.55357	0.13884
1988.58917	0.13886
1987.62477	0.13881
1986.66037	0.13876
1985.69598	0.13875
1984.73158	0.13875
1983.76718	0.13873
1982.80278	0.13871
1981.83838	0.13868
1980.87399	0.13865
1979.90959	0.13862
1978.94519	0.13860
1977.98079	0.13861
1977.01639	0.13862
1976.05199	0.13861
1975.08760	0.13859
1974.12320	0.13858
1973.15880	0.13855
1972.19440	0.13850
1971.23000	0.13846
1970.26560	0.13845
1969.30121	0.13850
1968.33681	0.13859
1967.37241	0.13861
1966.40801	0.13853
1965.44361	0.13841
1964.47922	0.13832
1963.51482	0.13828
1962.55042	0.13828
1961.58602	0.13827
1960.62162	0.13825
1959.65722	0.13822
1958.69283	0.13819
1957.72843	0.13816
1956.76403	0.13812
1955.79963	0.13810
1954.83523	0.13807
1953.87083	0.13804
1952.90644	0.13801
1951.94204	0.13795
1950.97764	0.13788
1950.01324	0.13785
1949.04884	0.13783
1948.08445	0.13782
1947.12005	0.13784
1946.15565	0.13784
1945.19125	0.13781
1944.22685	0.13787
1943.26245	0.13804
1942.29806	0.13803
1941.33366	0.13780
1940.36926	0.13762
1939.40486	0.13757
1938.44046	0.13755
1937.47606	0.13750
1936.51167	0.13745
1935.54727	0.13741
1934.58287	0.13739
1933.61847	0.13737
1932.65407	0.13733
1931.68968	0.13728
1930.72528	0.13727
1929.76088	0.13726
1928.79648	0.13723
1927.83208	0.13718
1926.86768	0.13713
1925.90329	0.13710
1924.93889	0.13715
1923.97449	0.13728
1923.01009	0.13734
1922.04569	0.13719
1921.08129	0.13702
1920.11690	0.13706
1919.15250	0.13731
1918.18810	0.13741
1917.22370	0.13715
1916.25930	0.13687
1915.29490	0.13679
1914.33051	0.13675
1913.36611	0.13668
1912.40171	0.13665
1911.43731	0.13672
1910.47291	0.13679
1909.50852	0.13677
1908.54412	0.13670
1907.57972	0.13662
1906.61532	0.13650
1905.65092	0.13641
1904.68652	0.13637
1903.72213	0.13634
1902.75773	0.13631
1901.79333	0.13628
1900.82893	0.13623
1899.86453	0.13618
1898.90013	0.13615
1897.93574	0.13614
1896.97134	0.13616
1896.00694	0.13619
1895.04254	0.13614
1894.07814	0.13601
1893.11375	0.13592
1892.14935	0.13590
1891.18495	0.13600
1890.22055	0.13616
1889.25615	0.13606
1888.29175	0.13574
1887.32736	0.13556
1886.36296	0.13552
1885.39856	0.13550
1884.43416	0.13543
1883.46976	0.13532
1882.50536	0.13521
1881.54097	0.13513
1880.57657	0.13507
1879.61217	0.13500
1878.64777	0.13493
1877.68337	0.13486
1876.71898	0.13480
1875.75458	0.13473
1874.79018	0.13464
1873.82578	0.13459
1872.86138	0.13456
1871.89698	0.13462
1870.93259	0.13489
1869.96819	0.13533
1869.00379	0.13555
1868.03939	0.13543
1867.07499	0.13530
1866.11059	0.13531
1865.14620	0.13545
1864.18180	0.13571
1863.21740	0.13609
1862.25300	0.13656
1861.28860	0.13711
1860.32421	0.13771
1859.35981	0.13838
1858.39541	0.13911
1857.43101	0.13988
1856.46661	0.14067
1855.50221	0.14144
1854.53782	0.14214
1853.57342	0.14275
1852.60902	0.14318
1851.64462	0.14336
1850.68022	0.14334
1849.71582	0.14325
1848.75143	0.14326
1847.78703	0.14332
1846.82263	0.14347
1845.85823	0.14405
1844.89383	0.14487
1843.92944	0.14509
1842.96504	0.14483
1842.00064	0.14494
1841.03624	0.14541
1840.07184	0.14603
1839.10744	0.14677
1838.14305	0.14762
1837.17865	0.14848
1836.21425	0.14929
1835.24985	0.15013
1834.28545	0.15102
1833.32105	0.15186
1832.35666	0.15268
1831.39226	0.15365
1830.42786	0.15451
1829.46346	0.15465
1828.49906	0.15429
1827.53467	0.15421
1826.57027	0.15462
1825.60587	0.15516
1824.64147	0.15542
1823.67707	0.15573
1822.71267	0.15636
1821.74828	0.15709
1820.78388	0.15772
1819.81948	0.15823
1818.85508	0.15859
1817.89068	0.15884
1816.92628	0.15906
1815.96189	0.15939
1814.99749	0.15987
1814.03309	0.16040
1813.06869	0.16082
1812.10429	0.16104
1811.13990	0.16095
1810.17550	0.16046
1809.21110	0.15988
1808.24670	0.15946
1807.28230	0.15909
1806.31790	0.15862
1805.35351	0.15800
1804.38911	0.15723
1803.42471	0.15636
1802.46031	0.15529
1801.49591	0.15405
1800.53151	0.15287
1799.56712	0.15160
1798.60272	0.15024
1797.63832	0.14927
1796.67392	0.14875
1795.70952	0.14839
1794.74512	0.14825
1793.78073	0.14835
1792.81633	0.14790
1791.85193	0.14637
1790.88753	0.14447
1789.92313	0.14275
1788.95874	0.14133
1787.99434	0.14021
1787.02994	0.13937
1786.06554	0.13887
1785.10114	0.13856
1784.13674	0.13838
1783.17235	0.13870
1782.20795	0.13980
1781.24355	0.14150
1780.27915	0.14338
1779.31475	0.14519
1778.35035	0.14704
1777.38596	0.14893
1776.42156	0.15072
1775.45716	0.15226
1774.49276	0.15376
1773.52836	0.15565
1772.56397	0.15778
1771.59957	0.15934
1770.63517	0.16049
1769.67077	0.16187
1768.70637	0.16346
1767.74197	0.16475
1766.77758	0.16577
1765.81318	0.16700
1764.84878	0.16828
1763.88438	0.16932
1762.91998	0.17003
1761.95558	0.16995
1760.99119	0.16903
1760.02679	0.16846
1759.06239	0.16886
1758.09799	0.17012
1757.13359	0.17186
1756.16920	0.17351
1755.20480	0.17512
1754.24040	0.17710
1753.27600	0.17939
1752.31160	0.18182
1751.34720	0.18384
1750.38281	0.18497
1749.41841	0.18589
1748.45401	0.18718
1747.48961	0.18908
1746.52521	0.19198
1745.56081	0.19596
1744.59642	0.20055
1743.63202	0.20478
1742.66762	0.20740
1741.70322	0.20852
1740.73882	0.20900
1739.77443	0.20885
1738.81003	0.20856
1737.84563	0.20936
1736.88123	0.21148
1735.91683	0.21444
1734.95243	0.21737
1733.98804	0.21742
1733.02364	0.21337
1732.05924	0.20856
1731.09484	0.20371
1730.13044	0.19815
1729.16604	0.19240
1728.20165	0.18763
1727.23725	0.18373
1726.27285	0.18030
1725.30845	0.17739
1724.34405	0.17492
1723.37966	0.17262
1722.41526	0.17046
1721.45086	0.16870
1720.48646	0.16758
1719.52206	0.16722
1718.55766	0.16695
1717.59327	0.16549
1716.62887	0.16369
1715.66447	0.16273
1714.70007	0.16185
1713.73567	0.16062
1712.77127	0.15960
1711.80688	0.15895
1710.84248	0.15848
1709.87808	0.15795
1708.91368	0.15744
1707.94928	0.15731
1706.98489	0.15739
1706.02049	0.15721
1705.05609	0.15672
1704.09169	0.15608
1703.12729	0.15567
1702.16289	0.15622
1701.19850	0.15762
1700.23410	0.15751
1699.26970	0.15535
1698.30530	0.15452
1697.34090	0.15501
1696.37650	0.15559
1695.41211	0.15463
1694.44771	0.15321
1693.48331	0.15264
1692.51891	0.15249
1691.55451	0.15247
1690.59012	0.15254
1689.62572	0.15254
1688.66132	0.15242
1687.69692	0.15231
1686.73252	0.15269
1685.76812	0.15392
1684.80373	0.15538
1683.83933	0.15531
1682.87493	0.15425
1681.91053	0.15375
1680.94613	0.15374
1679.98173	0.15356
1679.01734	0.15308
1678.05294	0.15282
1677.08854	0.15313
1676.12414	0.15382
1675.15974	0.15377
1674.19534	0.15289
1673.23095	0.15263
1672.26655	0.15300
1671.30215	0.15343
1670.33775	0.15387
1669.37335	0.15403
1668.40896	0.15346
1667.44456	0.15290
1666.48016	0.15282
1665.51576	0.15302
1664.55136	0.15354
1663.58696	0.15430
1662.62257	0.15463
1661.65817	0.15443
1660.69377	0.15443
1659.72937	0.15475
1658.76497	0.15512
1657.80057	0.15546
1656.83618	0.15590
1655.87178	0.15681
1654.90738	0.15846
1653.94298	0.16057
1652.97858	0.16105
1652.01419	0.15926
1651.04979	0.15840
1650.08539	0.15872
1649.12099	0.15969
1648.15659	0.16086
1647.19219	0.16173
1646.22780	0.16181
1645.26340	0.16125
1644.29900	0.16100
1643.33460	0.16122
1642.37020	0.16154
1641.40580	0.16181
1640.44141	0.16207
1639.47701	0.16242
1638.51261	0.16294
1637.54821	0.16370
1636.58381	0.16465
1635.61942	0.16505
1634.65502	0.16402
1633.69062	0.16302
1632.72622	0.16271
1631.76182	0.16261
1630.79742	0.16256
1629.83303	0.16266
1628.86863	0.16292
1627.90423	0.16296
1626.93983	0.16252
1625.97543	0.16215
1625.01103	0.16229
1624.04664	0.16254
1623.08224	0.16210
1622.11784	0.16122
1621.15344	0.16060
1620.18904	0.16023
1619.22465	0.16009
1618.26025	0.16042
1617.29585	0.16074
1616.33145	0.15972
1615.36705	0.15818
1614.40265	0.15729
1613.43826	0.15668
1612.47386	0.15605
1611.50946	0.15549
1610.54506	0.15505
1609.58066	0.15455
1608.61626	0.15392
1607.65187	0.15328
1606.68747	0.15267
1605.72307	0.15205
1604.75867	0.15149
1603.79427	0.15100
1602.82988	0.15047
1601.86548	0.14990
1600.90108	0.14932
1599.93668	0.14877
1598.97228	0.14828
1598.00788	0.14782
1597.04349	0.14739
1596.07909	0.14698
1595.11469	0.14657
1594.15029	0.14611
1593.18589	0.14568
1592.22149	0.14533
1591.25710	0.14506
1590.29270	0.14480
1589.32830	0.14447
1588.36390	0.14408
1587.39950	0.14364
1586.43511	0.14323
1585.47071	0.14286
1584.50631	0.14251
1583.54191	0.14219
1582.57751	0.14192
1581.61311	0.14167
1580.64872	0.14144
1579.68432	0.14126
1578.71992	0.14129
1577.75552	0.14179
1576.79112	0.14235
1575.82672	0.14173
1574.86233	0.14056
1573.89793	0.14004
1572.93353	0.13989
1571.96913	0.13997
1571.00473	0.14048
1570.04034	0.14097
1569.07594	0.14048
1568.11154	0.13959
1567.14714	0.13920
1566.18274	0.13927
1565.21834	0.13934
1564.25395	0.13904
1563.28955	0.13868
1562.32515	0.13884
1561.36075	0.13981
1560.39635	0.14145
1559.43195	0.14258
1558.46756	0.14176
1557.50316	0.13970
1556.53876	0.13845
1555.57436	0.13843
1554.60996	0.13857
1553.64556	0.13790
1552.68117	0.13724
1551.71677	0.13726
1550.75237	0.13757
1549.78797	0.13747
1548.82357	0.13690
1547.85918	0.13654
1546.89478	0.13671
1545.93038	0.13721
1544.96598	0.13741
1544.00158	0.13741
1543.03718	0.13778
1542.07279	0.13820
1541.10839	0.13850
1540.14399	0.13883
1539.17959	0.13799
1538.21519	0.13624
1537.25079	0.13529
1536.28640	0.13514
1535.32200	0.13553
1534.35760	0.13614
1533.39320	0.13607
1532.42880	0.13526
1531.46441	0.13460
1530.50001	0.13434
1529.53561	0.13444
1528.57121	0.13469
1527.60681	0.13480
1526.64241	0.13488
1525.67802	0.13482
1524.71362	0.13449
1523.74922	0.13453
1522.78482	0.13517
1521.82042	0.13569
1520.85602	0.13512
1519.89163	0.13403
1518.92723	0.13372
1517.96283	0.13416
1516.99843	0.13423
1516.03403	0.13356
1515.06964	0.13293
1514.10524	0.13267
1513.14084	0.13273
1512.17644	0.13271
1511.21204	0.13256
1510.24764	0.13273
1509.28325	0.13328
1508.31885	0.13413
1507.35445	0.13498
1506.39005	0.13460
1505.42565	0.13278
1504.46125	0.13138
1503.49686	0.13087
1502.53246	0.13077
1501.56806	0.13071
1500.60366	0.13081
1499.63926	0.13113
1498.67487	0.13121
1497.71047	0.13113
1496.74607	0.13113
1495.78167	0.13060
1494.81727	0.12986
1493.85287	0.12956
1492.88848	0.12960
1491.92408	0.13001
1490.95968	0.13058
1489.99528	0.13061
1489.03088	0.13018
1488.06648	0.12993
1487.10209	0.12966
1486.13769	0.12918
1485.17329	0.12883
1484.20889	0.12867
1483.24449	0.12858
1482.28010	0.12854
1481.31570	0.12843
1480.35130	0.12816
1479.38690	0.12791
1478.42250	0.12791
1477.45810	0.12825
1476.49371	0.12850
1475.52931	0.12836
1474.56491	0.12847
1473.60051	0.12902
1472.63611	0.12913
1471.67171	0.12833
1470.70732	0.12744
1469.74292	0.12703
1468.77852	0.12691
1467.81412	0.12687
1466.84972	0.12704
1465.88533	0.12749
1464.92093	0.12760
1463.95653	0.12700
1462.99213	0.12645
1462.02773	0.12627
1461.06333	0.12633
1460.09894	0.12674
1459.13454	0.12745
1458.17014	0.12824
1457.20574	0.12839
1456.24134	0.12731
1455.27694	0.12616
1454.31255	0.12559
1453.34815	0.12538
1452.38375	0.12529
1451.41935	0.12509
1450.45495	0.12489
1449.49055	0.12500
1448.52616	0.12521
1447.56176	0.12500
1446.59736	0.12450
1445.63296	0.12418
1444.66856	0.12402
1443.70417	0.12390
1442.73977	0.12379
1441.77537	0.12369
1440.81097	0.12358
1439.84657	0.12350
1438.88217	0.12368
1437.91778	0.12433
1436.95338	0.12478
1435.98898	0.12410
1435.02458	0.12335
1434.06018	0.12326
1433.09578	0.12353
1432.13139	0.12405
1431.16699	0.12486
1430.20259	0.12561
1429.23819	0.12578
1428.27379	0.12545
1427.30940	0.12494
1426.34500	0.12430
1425.38060	0.12376
1424.41620	0.12332
1423.45180	0.12273
1422.48740	0.12213
1421.52301	0.12202
1420.55861	0.12254
1419.59421	0.12296
1418.62981	0.12239
1417.66541	0.12162
1416.70101	0.12118
1415.73662	0.12086
1414.77222	0.12061
1413.80782	0.12044
1412.84342	0.12034
1411.87902	0.12026
1410.91463	0.12014
1409.95023	0.11998
1408.98583	0.11980
1408.02143	0.11968
1407.05703	0.11968
1406.09263	0.11982
1405.12824	0.11984
1404.16384	0.11953
1403.19944	0.11918
1402.23504	0.11899
1401.27064	0.11899
1400.30624	0.11923
1399.34185	0.11939
1398.37745	0.11910
1397.41305	0.11873
1396.44865	0.11871
1395.48425	0.11890
1394.51986	0.11872
1393.55546	0.11815
1392.59106	0.11775
1391.62666	0.11765
1390.66226	0.11764
1389.69786	0.11775
1388.73347	0.11816
1387.76907	0.11871
1386.80467	0.11907
1385.84027	0.11937
1384.87587	0.11967
1383.91147	0.11958
1382.94708	0.11892
1381.98268	0.11798
1381.01828	0.11714
1380.05388	0.11651
1379.08948	0.11606
1378.12509	0.11569
1377.16069	0.11539
1376.19629	0.11526
1375.23189	0.11526
1374.26749	0.11510
1373.30309	0.11460
1372.33870	0.11404
1371.37430	0.11364
1370.40990	0.11342
1369.44550	0.11328
1368.48110	0.11306
1367.51670	0.11273
1366.55231	0.11244
1365.58791	0.11227
1364.62351	0.11230
1363.65911	0.11240
1362.69471	0.11220
1361.73032	0.11178
1360.76592	0.11136
1359.80152	0.11098
1358.83712	0.11071
1357.87272	0.11050
1356.90832	0.11029
1355.94393	0.11010
1354.97953	0.10990
1354.01513	0.10966
1353.05073	0.10942
1352.08633	0.10919
1351.12193	0.10897
1350.15754	0.10876
1349.19314	0.10854
1348.22874	0.10829
1347.26434	0.10805
1346.29994	0.10784
1345.33555	0.10764
1344.37115	0.10745
1343.40675	0.10725
1342.44235	0.10710
1341.47795	0.10706
1340.51355	0.10705
1339.54916	0.10693
1338.58476	0.10666
1337.62036	0.10635
1336.65596	0.10606
1335.69156	0.10578
1334.72716	0.10551
1333.76277	0.10526
1332.79837	0.10504
1331.83397	0.10484
1330.86957	0.10465
1329.90517	0.10447
1328.94077	0.10427
1327.97638	0.10407
1327.01198	0.10386
1326.04758	0.10364
1325.08318	0.10346
1324.11878	0.10332
1323.15439	0.10317
1322.18999	0.10300
1321.22559	0.10286
1320.26119	0.10276
1319.29679	0.10262
1318.33239	0.10241
1317.36800	0.10218
1316.40360	0.10199
1315.43920	0.10184
1314.47480	0.10174
1313.51040	0.10164
1312.54600	0.10150
1311.58161	0.10132
1310.61721	0.10113
1309.65281	0.10096
1308.68841	0.10079
1307.72401	0.10061
1306.75962	0.10041
1305.79522	0.10021
1304.83082	0.10001
1303.86642	0.09984
1302.90202	0.09972
1301.93762	0.09961
1300.97323	0.09943
1300.00883	0.09918
1299.04443	0.09892
1298.08003	0.09869
1297.11563	0.09848
1296.15123	0.09829
1295.18684	0.09813
1294.22244	0.09799
1293.25804	0.09784
1292.29364	0.09769
1291.32924	0.09759
1290.36485	0.09754
1289.40045	0.09750
1288.43605	0.09742
1287.47165	0.09730
1286.50725	0.09715
1285.54285	0.09699
1284.57846	0.09683
1283.61406	0.09669
1282.64966	0.09657
1281.68526	0.09646
1280.72086	0.09631
1279.75646	0.09611
1278.79207	0.09586
1277.82767	0.09558
1276.86327	0.09531
1275.89887	0.09506
1274.93447	0.09486
1273.97008	0.09473
1273.00568	0.09464
1272.04128	0.09455
1271.07688	0.09446
1270.11248	0.09441
1269.14808	0.09441
1268.18369	0.09444
1267.21929	0.09454
1266.25489	0.09473
1265.29049	0.09497
1264.32609	0.09520
1263.36169	0.09540
1262.39730	0.09555
1261.43290	0.09565
1260.46850	0.09569
1259.50410	0.09564
1258.53970	0.09557
1257.57531	0.09550
1256.61091	0.09544
1255.64651	0.09540
1254.68211	0.09542
1253.71771	0.09549
1252.75331	0.09550
1251.78892	0.09540
1250.82452	0.09513
1249.86012	0.09469
1248.89572	0.09411
1247.93132	0.09347
1246.96692	0.09286
1246.00253	0.09232
1245.03813	0.09187
1244.07373	0.09149
1243.10933	0.09121
1242.14493	0.09100
1241.18054	0.09077
1240.21614	0.09041
1239.25174	0.08986
1238.28734	0.08918
1237.32294	0.08848
1236.35854	0.08787
1235.39415	0.08736
1234.42975	0.08697
1233.46535	0.08666
1232.50095	0.08639
1231.53655	0.08615
1230.57215	0.08595
1229.60776	0.08566
1228.64336	0.08523
1227.67896	0.08471
1226.71456	0.08423
1225.75016	0.08380
1224.78577	0.08336
1223.82137	0.08278
1222.85697	0.08203
1221.89257	0.08114
1220.92817	0.08017
1219.96377	0.07922
1218.99938	0.07839
1218.03498	0.07768
1217.07058	0.07703
1216.10618	0.07640
1215.14178	0.07582
1214.17738	0.07529
1213.21299	0.07482
1212.24859	0.07435
1211.28419	0.07386
1210.31979	0.07341
1209.35539	0.07300
1208.39099	0.07258
1207.42660	0.07216
1206.46220	0.07178
1205.49780	0.07143
1204.53340	0.07106
1203.56900	0.07067
1202.60461	0.07029
1201.64021	0.06992
1200.67581	0.06957
1199.71141	0.06920
1198.74701	0.06884
1197.78261	0.06848
1196.81822	0.06811
1195.85382	0.06774
1194.88942	0.06740
1193.92502	0.06709
1192.96062	0.06677
1191.99622	0.06641
1191.03183	0.06605
1190.06743	0.06568
1189.10303	0.06527
1188.13863	0.06480
1187.17423	0.06432
1186.20984	0.06384
1185.24544	0.06334
1184.28104	0.06280
1183.31664	0.06226
1182.35224	0.06175
1181.38784	0.06126
1180.42345	0.06073
1179.45905	0.06019
1178.49465	0.05968
1177.53025	0.05917
1176.56585	0.05864
1175.60145	0.05812
1174.63706	0.05764
1173.67266	0.05718
1172.70826	0.05669
1171.74386	0.05620
1170.77946	0.05573
1169.81507	0.05525
1168.85067	0.05478
1167.88627	0.05431
1166.92187	0.05387
1165.95747	0.05342
1164.99307	0.05296
1164.02868	0.05246
1163.06428	0.05198
1162.09988	0.05153
1161.13548	0.05109
1160.17108	0.05064
1159.20668	0.05018
1158.24229	0.04968
1157.27789	0.04909
1156.31349	0.04844
1155.34909	0.04783
1154.38469	0.04725
1153.42030	0.04668
1152.45590	0.04609
1151.49150	0.04551
1150.52710	0.04494
1149.56270	0.04439
1148.59830	0.04383
1147.63391	0.04328
1146.66951	0.04273
1145.70511	0.04219
1144.74071	0.04167
1143.77631	0.04116
1142.81191	0.04062
1141.84752	0.04005
1140.88312	0.03947
1139.91872	0.03889
1138.95432	0.03832
1137.98992	0.03777
1137.02553	0.03724
1136.06113	0.03673
1135.09673	0.03621
1134.13233	0.03567
1133.16793	0.03514
1132.20353	0.03463
1131.23914	0.03417
1130.27474	0.03374
1129.31034	0.03332
1128.34594	0.03290
1127.38154	0.03253
1126.41714	0.03225
1125.45275	0.03208
1124.48835	0.03213
1123.52395	0.03239
1122.55955	0.03272
1121.59515	0.03291
1120.63076	0.03285
1119.66636	0.03254
1118.70196	0.03199
1117.73756	0.03120
1116.77316	0.03018
1115.80876	0.02902
1114.84437	0.02785
1113.87997	0.02678
1112.91557	0.02586
1111.95117	0.02509
1110.98677	0.02444
1110.02237	0.02388
1109.05798	0.02331
1108.09358	0.02261
1107.12918	0.02182
1106.16478	0.02102
1105.20038	0.02023
1104.23598	0.01943
1103.27159	0.01866
1102.30719	0.01796
1101.34279	0.01731
1100.37839	0.01670
1099.41399	0.01607
1098.44960	0.01544
1097.48520	0.01483
1096.52080	0.01425
1095.55640	0.01370
1094.59200	0.01315
1093.62760	0.01259
1092.66321	0.01205
1091.69881	0.01155
1090.73441	0.01108
1089.77001	0.01060
1088.80561	0.01015
1087.84121	0.00973
1086.87682	0.00931
1085.91242	0.00891
1084.94802	0.00851
1083.98362	0.00814
1083.01922	0.00778
1082.05483	0.00742
1081.09043	0.00708
1080.12603	0.00677
1079.16163	0.00646
1078.19723	0.00615
1077.23283	0.00585
1076.26844	0.00561
1075.30404	0.00541
1074.33964	0.00524
1073.37524	0.00510
1072.41084	0.00502
1071.44644	0.00498
1070.48205	0.00495
1069.51765	0.00492
1068.55325	0.00493
1067.58885	0.00499
1066.62445	0.00508
1065.66006	0.00521
1064.69566	0.00538
1063.73126	0.00528
1062.76686	0.00523
1061.80246	0.00526
1060.83806	0.00533
1059.87367	0.00541
1058.90927	0.00552
1057.94487	0.00567
1056.98047	0.00583
1056.01607	0.00598
1055.05167	0.00618
1054.08728	0.00644
1053.12288	0.00676
1052.15848	0.00715
1051.19408	0.00761
1050.22968	0.00813
1049.26529	0.00867
1048.30089	0.00925
1047.33649	0.00987
1046.37209	0.01055
1045.40769	0.01129
1044.44329	0.01207
1043.47890	0.01294
1042.51450	0.01388
1041.55010	0.01485
1040.58570	0.01586
1039.62130	0.01695
1038.65690	0.01812
1037.69251	0.01935
1036.72811	0.02066
1035.76371	0.02207
1034.79931	0.02355
1033.83491	0.02509
1032.87052	0.02669
1031.90612	0.02842
1030.94172	0.03025
1029.97732	0.03213
1029.01292	0.03405
1028.04852	0.03602
1027.08413	0.03806
1026.11973	0.04017
1025.15533	0.04235
1024.19093	0.04464
1023.22653	0.04701
1022.26213	0.04943
1021.29774	0.05193
1020.33334	0.05451
1019.36894	0.05717
1018.40454	0.05987
1017.44014	0.06264
1016.47575	0.06549
1015.51135	0.06839
1014.54695	0.07136
1013.58255	0.07437
1012.61815	0.07744
1011.65375	0.08060
1010.68936	0.08383
1009.72496	0.08708
1008.76056	0.09036
1007.79616	0.09375
1006.83176	0.09722
1005.86736	0.10071
1004.90297	0.10428
1003.93857	0.10798
1002.97417	0.11182
1002.00977	0.11575
1001.04537	0.11975
1000.08098	0.12388
999.11658	0.12814
998.15218	0.13246
997.18778	0.13673
996.22338	0.14104
995.25898	0.14547
994.29459	0.15005
993.33019	0.15470
992.36579	0.15945
991.40139	0.16432
990.43699	0.16928
989.47259	0.17433
988.50820	0.17945
987.54380	0.18468
986.57940	0.19004
985.61500	0.19547
984.65060	0.20096
983.68620	0.20654
982.72181	0.21228
981.75741	0.21812
980.79301	0.22404
979.82861	0.23007
978.86421	0.23627
977.89982	0.24266
976.93542	0.24917
975.97102	0.25576
975.00662	0.26250
974.04222	0.26939
973.07782	0.27636
972.11343	0.28345
971.14903	0.29074
970.18463	0.29822
969.22023	0.30584
968.25583	0.31363
967.29143	0.32159
966.32704	0.32973
965.36264	0.33803
964.39824	0.34649
963.43384	0.35509
962.46944	0.36389
961.50505	0.37292
960.54065	0.38217
959.57625	0.39166
958.61185	0.40140
957.64745	0.41138
956.68305	0.42169
955.71866	0.43245
954.75426	0.44370
953.78986	0.45535
952.82546	0.46738
951.86106	0.47996
950.89666	0.49318
949.93227	0.50706
948.96787	0.52163
948.00347	0.53710
947.03907	0.55368
946.07467	0.57148
945.11028	0.59065
944.14588	0.61180
943.18148	0.63590
942.21708	0.66408
941.25268	0.69770
940.28828	0.73796
939.32389	0.78309
938.35949	0.82431
937.39509	0.85217
936.43069	0.87216
935.46629	0.89943
934.50189	0.94048
933.53750	0.99239
932.57310	1.05074
931.60870	1.11202
930.64430	1.17410
929.67990	1.23592
928.71551	1.29529
927.75111	1.35008
926.78671	1.39961
925.82231	1.44046
924.85791	1.46880
923.89351	1.48749
922.92912	1.50192
921.96472	1.51452
921.00032	1.52819
920.03592	1.54543
919.07152	1.56344
918.10712	1.58132
917.14273	1.59872
916.17833	1.60970
915.21393	1.61553
914.24953	1.62591
913.28513	1.64489
912.32074	1.67002
911.35634	1.70487
910.39194	1.75688
909.42754	1.81909
908.46314	1.87242
907.49874	1.90357
906.53435	1.90921
905.56995	1.90124
904.60555	1.89810
903.64115	1.90622
902.67675	1.92228
901.71235	1.94195
900.74796	1.96658
899.78356	1.99090
898.81916	2.00000
897.85476	1.99421
896.89036	1.97835
895.92597	1.95499
894.96157	1.92235
893.99717	1.86827
893.03277	1.80023
892.06837	1.73670
891.10397	1.67743
890.13958	1.61507
889.17518	1.55134
888.21078	1.49063
887.24638	1.43477
886.28198	1.38511
885.31758	1.34152
884.35319	1.30145
883.38879	1.26390
882.42439	1.22965
881.45999	1.19702
880.49559	1.16448
879.53120	1.13391
878.56680	1.10668
877.60240	1.08115
876.63800	1.05630
875.67360	1.03307
874.70920	1.01155
873.74481	0.99100
872.78041	0.97122
871.81601	0.95212
870.85161	0.93383
869.88721	0.91678
868.92281	0.90078
867.95842	0.88539
866.99402	0.87060
866.02962	0.85644
865.06522	0.84285
864.10082	0.82976
863.13642	0.81698
862.17203	0.80442
861.20763	0.79234
860.24323	0.78092
859.27883	0.76961
858.31443	0.75805
857.35004	0.74666
856.38564	0.73582
855.42124	0.72544
854.45684	0.71514
853.49244	0.70489
852.52804	0.69474
851.56365	0.68466
850.59925	0.67465
849.63485	0.66470
848.67045	0.65476
847.70605	0.64476
846.74165	0.63539
845.77726	0.63006
844.81286	0.63518
843.84846	0.65308
842.88406	0.67375
841.91966	0.68177
840.95527	0.67380
839.99087	0.65792
839.02647	0.64147
838.06207	0.62736
837.09767	0.61564
836.13327	0.60556
835.16888	0.59660
834.20448	0.58843
833.24008	0.58086
832.27568	0.57382
831.31128	0.56721
830.34688	0.56097
829.38249	0.55508
828.41809	0.54937
827.45369	0.54379
826.48929	0.53849
825.52489	0.53369
824.56050	0.52964
823.59610	0.52609
822.63170	0.52205
821.66730	0.51706
820.70290	0.51169
819.73850	0.50650
818.77411	0.50155
817.80971	0.49675
816.84531	0.49214
815.88091	0.48781
814.91651	0.48371
813.95211	0.47971
812.98772	0.47570
812.02332	0.47160
811.05892	0.46755
810.09452	0.46372
809.13012	0.46000
808.16573	0.45626
807.20133	0.45254
806.23693	0.44894
805.27253	0.44551
804.30813	0.44237
803.34373	0.43957
802.37934	0.43703
801.41494	0.43468
800.45054	0.43264
799.48614	0.43083
798.52174	0.42895
797.55734	0.42670
796.59295	0.42400
795.62855	0.42101
794.66415	0.41797
793.69975	0.41499
792.73535	0.41208
791.77096	0.40938
790.80656	0.40699
789.84216	0.40475
788.87776	0.40258
787.91336	0.40056
786.94896	0.39872
785.98457	0.39700
785.02017	0.39539
784.05577	0.39388
783.09137	0.39238
782.12697	0.39077
781.16257	0.38902
780.19818	0.38720
779.23378	0.38533
778.26938	0.38345
777.30498	0.38157
776.34058	0.37967
775.37619	0.37769
774.41179	0.37550
773.44739	0.37309
772.48299	0.37051
771.51859	0.36777
770.55419	0.36493
769.58980	0.36211
768.62540	0.35930
767.66100	0.35645
766.69660	0.35358
765.73220	0.35071
764.76780	0.34788
763.80341	0.34519
762.83901	0.34263
761.87461	0.34013
760.91021	0.33769
759.94581	0.33541
758.98142	0.33336
758.01702	0.33148
757.05262	0.32959
756.08822	0.32766
755.12382	0.32583
754.15942	0.32421
753.19503	0.32262
752.23063	0.32079
751.26623	0.31888
750.30183	0.31710
749.33743	0.31543
748.37303	0.31381
747.40864	0.31223
746.44424	0.31063
745.47984	0.30892
744.51544	0.30715
743.55104	0.30536
742.58664	0.30358
741.62225	0.30187
740.65785	0.30018
739.69345	0.29843
738.72905	0.29665
737.76465	0.29494
736.80026	0.29318
735.83586	0.29127
734.87146	0.28937
733.90706	0.28759
732.94266	0.28588
731.97826	0.28414
731.01387	0.28238
730.04947	0.28068
729.08507	0.27911
728.12067	0.27754
727.15627	0.27594
726.19187	0.27440
725.22748	0.27297
724.26308	0.27160
723.29868	0.27021
722.33428	0.26896
721.36988	0.26798
720.40549	0.26699
719.44109	0.26579
718.47669	0.26468
717.51229	0.26389
716.54789	0.26333
715.58349	0.26282
714.61910	0.26226
713.65470	0.26162
712.69030	0.26079
711.72590	0.25971
710.76150	0.25843
709.79710	0.25695
708.83271	0.25528
707.86831	0.25357
706.90391	0.25199
705.93951	0.25053
704.97511	0.24920
704.01072	0.24806
703.04632	0.24709
702.08192	0.24627
701.11752	0.24552
700.15312	0.24463
699.18872	0.24345
698.22433	0.24202
697.25993	0.24042
696.29553	0.23870
695.33113	0.23696
694.36673	0.23526
693.40233	0.23365
692.43794	0.23220
691.47354	0.23093
690.50914	0.22976
689.54474	0.22864
688.58034	0.22761
687.61595	0.22660
686.65155	0.22554
685.68715	0.22447
684.72275	0.22340
683.75835	0.22237
682.79395	0.22146
681.82956	0.22055
680.86516	0.21952
679.90076	0.21849
678.93636	0.21749
677.97196	0.21642
677.00756	0.21536
676.04317	0.21440
675.07877	0.21345
674.11437	0.21245
673.14997	0.21147
672.18557	0.21062
671.22118	0.21010
670.25678	0.21043
669.29238	0.21188
668.32798	0.21205
667.36358	0.20754
666.39918	0.20463
665.43479	0.20340
664.47039	0.20251
663.50599	0.20177
662.54159	0.20104
661.57719	0.20022
660.61279	0.19938
659.64840	0.19857
658.68400	0.19775
657.71960	0.19694
656.75520	0.19616
655.79080	0.19536
654.82641	0.19452
653.86201	0.19364
652.89761	0.19277
651.93321	0.19193
650.96881	0.19115
650.00441	0.19044
649.04002	0.18971
648.07562	0.18880
647.11122	0.18777
646.14682	0.18682
645.18242	0.18601
644.21802	0.18523
643.25363	0.18443
642.28923	0.18361
641.32483	0.18276
640.36043	0.18186
639.39603	0.18106
638.43163	0.18040
637.46724	0.17980
636.50284	0.17910
635.53844	0.17825
634.57404	0.17739
633.60964	0.17664
632.64525	0.17589
631.68085	0.17507
630.71645	0.17432
629.75205	0.17365
628.78765	0.17291
627.82325	0.17213
626.85886	0.17141
625.89446	0.17079
624.93006	0.17016
623.96566	0.16941
623.00126	0.16860
622.03686	0.16785
621.07247	0.16714
620.10807	0.16639
619.14367	0.16573
618.17927	0.16521
617.21487	0.16450
616.25048	0.16361
615.28608	0.16283
614.32168	0.16209
613.35728	0.16132
612.39288	0.16058
611.42848	0.15995
610.46409	0.15943
609.49969	0.15878
608.53529	0.15795
607.57089	0.15711
606.60649	0.15632
605.64209	0.15569
604.67770	0.15532
603.71330	0.15486
602.74890	0.15401
601.78450	0.15311
600.82010	0.15247
599.85571	0.15195
598.89131	0.15129
597.92691	0.15048
596.96251	0.14974
595.99811	0.14914
595.03371	0.14851
594.06932	0.14781
593.10492	0.14721
592.14052	0.14670
591.17612	0.14605
590.21172	0.14533
589.24732	0.14459
588.28293	0.14379
587.31853	0.14295
586.35413	0.14218
585.38973	0.14153
584.42533	0.14093
583.46094	0.14025
582.49654	0.13942
581.53214	0.13857
580.56774	0.13788
579.60334	0.13733
578.63894	0.13680
577.67455	0.13627
576.71015	0.13565
575.74575	0.13486
574.78135	0.13400
573.81695	0.13323
572.85255	0.13256
571.88816	0.13192
570.92376	0.13127
569.95936	0.13060
568.99496	0.12995
568.03056	0.12926
567.06617	0.12849
566.10177	0.12777
565.13737	0.12716
564.17297	0.12656
563.20857	0.12592
562.24417	0.12519
561.27978	0.12440
560.31538	0.12364
559.35098	0.12291
558.38658	0.12222
557.42218	0.12153
556.45778	0.12089
555.49339	0.12033
554.52899	0.11974
553.56459	0.11910
552.60019	0.11845
551.63579	0.11781
550.67140	0.11717
549.70700	0.11650
548.74260	0.11581
547.77820	0.11512
546.81380	0.11442
545.84940	0.11370
544.88501	0.11295
543.92061	0.11218
542.95621	0.11147
541.99181	0.11086
541.02741	0.11028
540.06301	0.10964
539.09862	0.10900
538.13422	0.10836
537.16982	0.10770
536.20542	0.10702
535.24102	0.10637
534.27663	0.10575
533.31223	0.10510
532.34783	0.10429
531.38343	0.10361
530.41903	0.10335
529.45463	0.10311
528.49024	0.10244
527.52584	0.10170
526.56144	0.10122
525.59704	0.10070
524.63264	0.10002
523.66824	0.09949
522.70385	0.09910
521.73945	0.09871
520.77505	0.09841
519.81065	0.09826
518.84625	0.09813
517.88185	0.09797
516.91746	0.09771
515.95306	0.09729
514.98866	0.09678
514.02426	0.09623
513.05986	0.09562
512.09547	0.09506
511.13107	0.09450
510.16667	0.09380
509.20227	0.09300
508.23787	0.09214
507.27347	0.09113
506.30908	0.08987
505.34468	0.08861
504.38028	0.08761
503.41588	0.08668
502.45148	0.08555
501.48708	0.08433
500.52269	0.08322
499.55829	0.08224
498.59389	0.08132
497.62949	0.08045
496.66509	0.07966
495.70070	0.07895
494.73630	0.07826
493.77190	0.07756
492.80750	0.07687
491.84310	0.07627
490.87870	0.07571
489.91431	0.07510
488.94991	0.07440
487.98551	0.07370
487.02111	0.07314
486.05671	0.07271
485.09231	0.07220
484.12792	0.07150
483.16352	0.07075
482.19912	0.07006
481.23472	0.06939
480.27032	0.06869
479.30593	0.06807
478.34153	0.06760
477.37713	0.06711
476.41273	0.06649
475.44833	0.06589
474.48393	0.06547
473.51954	0.06515
472.55514	0.06467
471.59074	0.06395
470.62634	0.06319
469.66194	0.06251
468.69754	0.06194
467.73315	0.06134
466.76875	0.06062
465.80435	0.05981
464.83995	0.05898
463.87555	0.05826
462.91116	0.05773
461.94676	0.05714
460.98236	0.05630
460.01796	0.05554
459.05356	0.05529
458.08916	0.05527
457.12477	0.05462
456.16037	0.05356
455.19597	0.05281
454.23157	0.05235
453.26717	0.05174
452.30277	0.05081
451.33838	0.04994
450.37398	0.04927
449.40958	0.04855
448.44518	0.04786
447.48078	0.04729
446.51639	0.04661
445.55199	0.04582
444.58759	0.04517
443.62319	0.04459
442.65879	0.04382
441.69439	0.04286
440.73000	0.04193
439.76560	0.04115
438.80120	0.04039
437.83680	0.03963
436.87240	0.03887
435.90800	0.03799
434.94361	0.03708
433.97921	0.03615
433.01481	0.03509
432.05041	0.03399
431.08601	0.03303
430.12162	0.03214
429.15722	0.03099
428.19282	0.02966
427.22842	0.02855
426.26402	0.02758
425.29962	0.02635
424.33523	0.02489
423.37083	0.02345
422.40643	0.02206
421.44203	0.02096
420.47763	0.02023
419.51323	0.01926
418.54884	0.01741
417.58444	0.01491
416.62004	0.01245
415.65564	0.01027
414.69124	0.00835
413.72685	0.00686
412.76245	0.00594
411.79805	0.00538
410.83365	0.00405
409.86925	0.00387
408.90485	0.00567
407.94046	0.01047
406.97606	0.02005
406.01166	0.03740
405.04726	0.06758
404.08286	0.11812
403.11846	0.19494
402.15407	0.28671
401.18967	0.34490
400.22527	0.32264
399.26087	0.25262
398.29647	0.18593
397.33207	0.13592
396.36768	0.10312
395.40328	0.08288
394.43888	0.06691
393.47448	0.05313
392.51008	0.04322
391.54569	0.03686
390.58129	0.03475
389.61689	0.04075
388.65249	0.06190
387.68809	0.10475
386.72369	0.16279
385.75930	0.20508
384.79490	0.19891
383.83050	0.16490
382.86610	0.14150
381.90170	0.13504
380.93730	0.13469
379.97291	0.12800
379.00851	0.11133
378.04411	0.09122
377.07971	0.07335
376.11531	0.05808
375.15092	0.04453
374.18652	0.03344
373.22212	0.02568
372.25772	0.01980
371.29332	0.01455
370.32892	0.00973
369.36453	0.00538
