3998.39510	0.35792
3997.43071	0.35847
3996.46631	0.35858
3995.50191	0.35912
3994.53751	0.36027
3993.57311	0.36029
3992.60871	0.35917
3991.64432	0.35868
3990.67992	0.35939
3989.71552	0.36035
3988.75112	0.36048
3987.78672	0.35978
3986.82232	0.35919
3985.85793	0.35919
3984.89353	0.35987
3983.92913	0.36101
3982.96473	0.36169
3982.00033	0.36135
3981.03594	0.36104
3980.07154	0.36146
3979.10714	0.36158
3978.14274	0.36091
3977.17834	0.36037
3976.21394	0.36009
3975.24955	0.35947
3974.28515	0.35896
3973.32075	0.35915
3972.35635	0.36001
3971.39195	0.36120
3970.42755	0.36193
3969.46316	0.36241
3968.49876	0.36309
3967.53436	0.36354
3966.56996	0.36364
3965.60556	0.36388
3964.64117	0.36409
3963.67677	0.36326
3962.71237	0.36206
3961.74797	0.36225
3960.78357	0.36334
3959.81917	0.36403
3958.85478	0.36422
3957.89038	0.36474
3956.92598	0.36527
3955.96158	0.36457
3954.99718	0.36365
3954.03278	0.36380
3953.06839	0.36416
3952.10399	0.36372
3951.13959	0.36346
3950.17519	0.36442
3949.21079	0.36513
3948.24640	0.36590
3947.28200	0.36738
3946.31760	0.36669
3945.35320	0.36369
3944.38880	0.36132
3943.42440	0.36248
3942.46001	0.36671
3941.49561	0.36866
3940.53121	0.36765
3939.56681	0.36685
3938.60241	0.36671
3937.63801	0.36647
3936.67362	0.36596
3935.70922	0.36554
3934.74482	0.36493
3933.78042	0.36440
3932.81602	0.36699
3931.85163	0.37123
3930.88723	0.37156
3929.92283	0.36967
3928.95843	0.36923
3927.99403	0.36899
3927.02963	0.36745
3926.06524	0.36631
3925.10084	0.36798
3924.13644	0.37085
3923.17204	0.37183
3922.20764	0.36987
3921.24324	0.36750
3920.27885	0.36900
3919.31445	0.36994
3918.35005	0.36745
3917.38565	0.36898
3916.42125	0.37393
3915.45686	0.37451
3914.49246	0.37218
3913.52806	0.37065
3912.56366	0.37004
3911.59926	0.37022
3910.63486	0.37097
3909.67047	0.37099
3908.70607	0.36966
3907.74167	0.36775
3906.77727	0.36594
3905.81287	0.36422
3904.84847	0.36592
3903.88408	0.36977
3902.91968	0.37132
3901.95528	0.37387
3900.99088	0.37357
3900.02648	0.37135
3899.06209	0.37528
3898.09769	0.37771
3897.13329	0.37507
3896.16889	0.37234
3895.20449	0.37076
3894.24009	0.36981
3893.27570	0.36782
3892.31130	0.36853
3891.34690	0.37693
3890.38250	0.38233
3889.41810	0.37956
3888.45370	0.37368
3887.48931	0.36660
3886.52491	0.36651
3885.56051	0.37796
3884.59611	0.38195
3883.63171	0.37728
3882.66731	0.37183
3881.70292	0.36813
3880.73852	0.37313
3879.77412	0.38165
3878.80972	0.38109
3877.84532	0.37683
3876.88093	0.37337
3875.91653	0.36924
3874.95213	0.36931
3873.98773	0.37626
3873.02333	0.37725
3872.05893	0.36942
3871.09454	0.36408
3870.13014	0.37436
3869.16574	0.38658
3868.20134	0.38368
3867.23694	0.37453
3866.27254	0.36924
3865.30815	0.37499
3864.34375	0.38227
3863.37935	0.38029
3862.41495	0.37940
3861.45055	0.38342
3860.48616	0.38312
3859.52176	0.37863
3858.55736	0.37574
3857.59296	0.37684
3856.62856	0.37459
3855.66416	0.36370
3854.69977	0.36132
3853.73537	0.38105
3852.77097	0.39144
3851.80657	0.39211
3850.84217	0.38821
3849.87777	0.38217
3848.91338	0.37943
3847.94898	0.37869
3846.98458	0.37774
3846.02018	0.37566
3845.05578	0.37350
3844.09139	0.37678
3843.12699	0.38140
3842.16259	0.37985
3841.19819	0.37872
3840.23379	0.37890
3839.26939	0.37507
3838.30500	0.37946
3837.34060	0.38854
3836.37620	0.38514
3835.41180	0.38237
3834.44740	0.38434
3833.48300	0.37907
3832.51861	0.37437
3831.55421	0.38094
3830.58981	0.38618
3829.62541	0.38308
3828.66101	0.37812
3827.69662	0.37659
3826.73222	0.37999
3825.76782	0.38252
3824.80342	0.38020
3823.83902	0.37454
3822.87462	0.36799
3821.91023	0.37062
3820.94583	0.38605
3819.98143	0.39087
3819.01703	0.38367
3818.05263	0.37381
3817.08823	0.36997
3816.12384	0.38151
3815.15944	0.38936
3814.19504	0.38457
3813.23064	0.38042
3812.26624	0.38030
3811.30185	0.38031
3810.33745	0.37884
3809.37305	0.37469
3808.40865	0.36986
3807.44425	0.37514
3806.47985	0.38743
3805.51546	0.38707
3804.55106	0.37896
3803.58666	0.37086
3802.62226	0.36657
3801.65786	0.37706
3800.69346	0.39036
3799.72907	0.38872
3798.76467	0.38103
3797.80027	0.37666
3796.83587	0.38023
3795.87147	0.38558
3794.90708	0.38492
3793.94268	0.38240
3792.97828	0.38149
3792.01388	0.38066
3791.04948	0.37990
3790.08508	0.38026
3789.12069	0.38147
3788.15629	0.38167
3787.19189	0.37960
3786.22749	0.37735
3785.26309	0.37814
3784.29869	0.38088
3783.33430	0.38142
3782.36990	0.37987
3781.40550	0.37751
3780.44110	0.37711
3779.47670	0.38246
3778.51230	0.38663
3777.54791	0.38484
3776.58351	0.38144
3775.61911	0.37959
3774.65471	0.37908
3773.69031	0.37905
3772.72592	0.37871
3771.76152	0.37623
3770.79712	0.37574
3769.83272	0.38296
3768.86832	0.38721
3767.90392	0.38274
3766.93953	0.37820
3765.97513	0.38128
3765.01073	0.38631
3764.04633	0.38597
3763.08193	0.38369
3762.11753	0.38102
3761.15314	0.37797
3760.18874	0.38082
3759.22434	0.38749
3758.25994	0.38639
3757.29554	0.38283
3756.33115	0.38376
3755.36675	0.38253
3754.40235	0.37467
3753.43795	0.36692
3752.47355	0.37408
3751.50915	0.38345
3750.54476	0.38008
3749.58036	0.38487
3748.61596	0.39308
3747.65156	0.38754
3746.68716	0.37494
3745.72276	0.36449
3744.75837	0.37956
3743.79397	0.39929
3742.82957	0.39360
3741.86517	0.38549
3740.90077	0.38358
3739.93638	0.38156
3738.97198	0.37756
3738.00758	0.37516
3737.04318	0.37528
3736.07878	0.37871
3735.11438	0.38583
3734.14999	0.38741
3733.18559	0.38390
3732.22119	0.38699
3731.25679	0.39133
3730.29239	0.38785
3729.32799	0.38263
3728.36360	0.37975
3727.39920	0.38082
3726.43480	0.38477
3725.47040	0.38608
3724.50600	0.38343
3723.54161	0.38102
3722.57721	0.38470
3721.61281	0.38918
3720.64841	0.38708
3719.68401	0.38462
3718.71961	0.38557
3717.75522	0.38543
3716.79082	0.38298
3715.82642	0.38083
3714.86202	0.37813
3713.89762	0.37265
3712.93322	0.37304
3711.96883	0.38471
3711.00443	0.38706
3710.04003	0.38361
3709.07563	0.38742
3708.11123	0.38825
3707.14684	0.38374
3706.18244	0.38166
3705.21804	0.38196
3704.25364	0.38058
3703.28924	0.37813
3702.32484	0.38123
3701.36045	0.38861
3700.39605	0.38944
3699.43165	0.38534
3698.46725	0.38282
3697.50285	0.38326
3696.53845	0.38466
3695.57406	0.38449
3694.60966	0.38224
3693.64526	0.37840
3692.68086	0.37448
3691.71646	0.37692
3690.75207	0.38174
3689.78767	0.37940
3688.82327	0.38347
3687.85887	0.39423
3686.89447	0.39266
3685.93007	0.38634
3684.96568	0.38393
3684.00128	0.38435
3683.03688	0.38498
3682.07248	0.38388
3681.10808	0.38175
3680.14368	0.38243
3679.17929	0.38491
3678.21489	0.38231
3677.25049	0.37511
3676.28609	0.37609
3675.32169	0.39269
3674.35730	0.39910
3673.39290	0.39157
3672.42850	0.38066
3671.46410	0.37626
3670.49970	0.38385
3669.53530	0.39098
3668.57091	0.39283
3667.60651	0.39155
3666.64211	0.38772
3665.67771	0.38480
3664.71331	0.38412
3663.74891	0.38451
3662.78452	0.38522
3661.82012	0.38565
3660.85572	0.38544
3659.89132	0.38438
3658.92692	0.38185
3657.96252	0.37769
3656.99813	0.37894
3656.03373	0.38840
3655.06933	0.39101
3654.10493	0.38568
3653.14053	0.37930
3652.17614	0.37444
3651.21174	0.37447
3650.24734	0.38048
3649.28294	0.38579
3648.31854	0.38775
3647.35414	0.39149
3646.38975	0.39485
3645.42535	0.39295
3644.46095	0.38978
3643.49655	0.38881
3642.53215	0.38926
3641.56775	0.38937
3640.60336	0.38788
3639.63896	0.38601
3638.67456	0.38657
3637.71016	0.38885
3636.74576	0.38841
3635.78137	0.38472
3634.81697	0.38269
3633.85257	0.38528
3632.88817	0.38743
3631.92377	0.38441
3630.95937	0.37799
3629.99498	0.37603
3629.03058	0.38816
3628.06618	0.39809
3627.10178	0.39595
3626.13738	0.39149
3625.17298	0.38922
3624.20859	0.38794
3623.24419	0.38665
3622.27979	0.38473
3621.31539	0.38269
3620.35099	0.38394
3619.38660	0.38812
3618.42220	0.39074
3617.45780	0.39169
3616.49340	0.39043
3615.52900	0.38755
3614.56460	0.38544
3613.60021	0.38526
3612.63581	0.38909
3611.67141	0.39114
3610.70701	0.38724
3609.74261	0.38636
3608.77821	0.39029
3607.81382	0.39088
3606.84942	0.39013
3605.88502	0.38922
3604.92062	0.38726
3603.95622	0.38648
3602.99183	0.38695
3602.02743	0.38744
3601.06303	0.38864
3600.09863	0.39003
3599.13423	0.39055
3598.16983	0.39025
3597.20544	0.38838
3596.24104	0.38706
3595.27664	0.38830
3594.31224	0.38946
3593.34784	0.39075
3592.38344	0.39246
3591.41905	0.39180
3590.45465	0.38860
3589.49025	0.38689
3588.52585	0.38969
3587.56145	0.39393
3586.59706	0.39708
3585.63266	0.39689
3584.66826	0.39400
3583.70386	0.39286
3582.73946	0.39335
3581.77506	0.39297
3580.81067	0.39240
3579.84627	0.39209
3578.88187	0.39094
3577.91747	0.39015
3576.95307	0.39123
3575.98867	0.39224
3575.02428	0.39202
3574.05988	0.39148
3573.09548	0.39109
3572.13108	0.39111
3571.16668	0.39153
3570.20229	0.39051
3569.23789	0.38885
3568.27349	0.39109
3567.30909	0.39574
3566.34469	0.39826
3565.38029	0.39796
3564.41590	0.39622
3563.45150	0.39578
3562.48710	0.39509
3561.52270	0.39248
3560.55830	0.39123
3559.59390	0.39253
3558.62951	0.39357
3557.66511	0.39317
3556.70071	0.39217
3555.73631	0.39110
3554.77191	0.39030
3553.80752	0.39024
3552.84312	0.39203
3551.87872	0.39489
3550.91432	0.39558
3549.94992	0.39411
3548.98552	0.39255
3548.02113	0.39211
3547.05673	0.39294
3546.09233	0.39441
3545.12793	0.39590
3544.16353	0.39667
3543.19913	0.39707
3542.23474	0.39737
3541.27034	0.39664
3540.30594	0.39536
3539.34154	0.39453
3538.37714	0.39337
3537.41274	0.39253
3536.44835	0.39372
3535.48395	0.39546
3534.51955	0.39606
3533.55515	0.39585
3532.59075	0.39537
3531.62636	0.39512
3530.66196	0.39478
3529.69756	0.39418
3528.73316	0.39442
3527.76876	0.39563
3526.80436	0.39652
3525.83997	0.39662
3524.87557	0.39665
3523.91117	0.39729
3522.94677	0.39807
3521.98237	0.39754
3521.01797	0.39614
3520.05358	0.39579
3519.08918	0.39653
3518.12478	0.39711
3517.16038	0.39746
3516.19598	0.39780
3515.23159	0.39771
3514.26719	0.39696
3513.30279	0.39590
3512.33839	0.39533
3511.37399	0.39554
3510.40959	0.39633
3509.44520	0.39794
3508.48080	0.39897
3507.51640	0.39802
3506.55200	0.39676
3505.58760	0.39685
3504.62320	0.39758
3503.65881	0.39824
3502.69441	0.39896
3501.73001	0.39912
3500.76561	0.39851
3499.80121	0.39846
3498.83682	0.39911
3497.87242	0.39883
3496.90802	0.39799
3495.94362	0.39833
3494.97922	0.39922
3494.01482	0.39936
3493.05043	0.39946
3492.08603	0.40045
3491.12163	0.40131
3490.15723	0.40050
3489.19283	0.39910
3488.22843	0.39894
3487.26404	0.39902
3486.29964	0.39848
3485.33524	0.39807
3484.37084	0.39778
3483.40644	0.39779
3482.44205	0.39860
3481.47765	0.39948
3480.51325	0.40018
3479.54885	0.40127
3478.58445	0.40217
3477.62005	0.40179
3476.65566	0.40068
3475.69126	0.40033
3474.72686	0.40064
3473.76246	0.40056
3472.79806	0.40007
3471.83366	0.39989
3470.86927	0.40036
3469.90487	0.40072
3468.94047	0.40019
3467.97607	0.39976
3467.01167	0.40034
3466.04728	0.40095
3465.08288	0.40069
3464.11848	0.40033
3463.15408	0.40081
3462.18968	0.40133
3461.22528	0.40052
3460.26089	0.39896
3459.29649	0.39865
3458.33209	0.40013
3457.36769	0.40192
3456.40329	0.40242
3455.43889	0.40149
3454.47450	0.40019
3453.51010	0.39959
3452.54570	0.39957
3451.58130	0.39951
3450.61690	0.39996
3449.65251	0.40101
3448.68811	0.40132
3447.72371	0.40143
3446.75931	0.40255
3445.79491	0.40333
3444.83051	0.40285
3443.86612	0.40202
3442.90172	0.40164
3441.93732	0.40170
3440.97292	0.40203
3440.00852	0.40247
3439.04412	0.40268
3438.07973	0.40284
3437.11533	0.40332
3436.15093	0.40346
3435.18653	0.40283
3434.22213	0.40219
3433.25774	0.40196
3432.29334	0.40181
3431.32894	0.40187
3430.36454	0.40258
3429.40014	0.40332
3428.43574	0.40284
3427.47135	0.40135
3426.50695	0.40097
3425.54255	0.40262
3424.57815	0.40422
3423.61375	0.40399
3422.64935	0.40268
3421.68496	0.40168
3420.72056	0.40182
3419.75616	0.40287
3418.79176	0.40350
3417.82736	0.40342
3416.86296	0.40369
3415.89857	0.40453
3414.93417	0.40473
3413.96977	0.40383
3413.00537	0.40314
3412.04097	0.40335
3411.07658	0.40408
3410.11218	0.40465
3409.14778	0.40423
3408.18338	0.40334
3407.21898	0.40308
3406.25458	0.40308
3405.29019	0.40298
3404.32579	0.40315
3403.36139	0.40381
3402.39699	0.40458
3401.43259	0.40504
3400.46819	0.40554
3399.50380	0.40609
3398.53940	0.40565
3397.57500	0.40466
3396.61060	0.40487
3395.64620	0.40610
3394.68181	0.40704
3393.71741	0.40785
3392.75301	0.40874
3391.78861	0.40892
3390.82421	0.40832
3389.85981	0.40727
3388.89542	0.40589
3387.93102	0.40477
3386.96662	0.40420
3386.00222	0.40460
3385.03782	0.40622
3384.07342	0.40771
3383.10903	0.40833
3382.14463	0.40852
3381.18023	0.40846
3380.21583	0.40825
3379.25143	0.40778
3378.28704	0.40741
3377.32264	0.40756
3376.35824	0.40759
3375.39384	0.40716
3374.42944	0.40669
3373.46504	0.40659
3372.50065	0.40712
3371.53625	0.40781
3370.57185	0.40787
3369.60745	0.40730
3368.64305	0.40674
3367.67865	0.40659
3366.71426	0.40681
3365.74986	0.40708
3364.78546	0.40729
3363.82106	0.40781
3362.85666	0.40840
3361.89227	0.40825
3360.92787	0.40738
3359.96347	0.40671
3358.99907	0.40675
3358.03467	0.40743
3357.07027	0.40869
3356.10588	0.40955
3355.14148	0.40909
3354.17708	0.40827
3353.21268	0.40819
3352.24828	0.40865
3351.28388	0.40865
3350.31949	0.40792
3349.35509	0.40756
3348.39069	0.40824
3347.42629	0.40882
3346.46189	0.40857
3345.49750	0.40820
3344.53310	0.40843
3343.56870	0.40920
3342.60430	0.40947
3341.63990	0.40871
3340.67550	0.40835
3339.71111	0.40907
3338.74671	0.40952
3337.78231	0.40926
3336.81791	0.40920
3335.85351	0.40913
3334.88911	0.40841
3333.92472	0.40754
3332.96032	0.40756
3331.99592	0.40873
3331.03152	0.40991
3330.06712	0.41029
3329.10273	0.41037
3328.13833	0.41056
3327.17393	0.41069
3326.20953	0.41056
3325.24513	0.41007
3324.28073	0.40943
3323.31634	0.40914
3322.35194	0.40946
3321.38754	0.41009
3320.42314	0.41046
3319.45874	0.41056
3318.49434	0.41076
3317.52995	0.41070
3316.56555	0.40996
3315.60115	0.40911
3314.63675	0.40892
3313.67235	0.40940
3312.70795	0.40988
3311.74356	0.40966
3310.77916	0.40931
3309.81476	0.41003
3308.85036	0.41130
3307.88596	0.41196
3306.92157	0.41235
3305.95717	0.41268
3304.99277	0.41245
3304.02837	0.41189
3303.06397	0.41137
3302.09957	0.41078
3301.13518	0.41055
3300.17078	0.41090
3299.20638	0.41091
3298.24198	0.41061
3297.27758	0.41082
3296.31318	0.41131
3295.34879	0.41174
3294.38439	0.41215
3293.41999	0.41256
3292.45559	0.41265
3291.49119	0.41196
3290.52680	0.41093
3289.56240	0.41071
3288.59800	0.41140
3287.63360	0.41227
3286.66920	0.41301
3285.70480	0.41324
3284.74041	0.41253
3283.77601	0.41197
3282.81161	0.41247
3281.84721	0.41312
3280.88281	0.41334
3279.91841	0.41335
3278.95402	0.41337
3277.98962	0.41386
3277.02522	0.41452
3276.06082	0.41427
3275.09642	0.41337
3274.13203	0.41324
3273.16763	0.41423
3272.20323	0.41526
3271.23883	0.41520
3270.27443	0.41435
3269.31003	0.41369
3268.34564	0.41334
3267.38124	0.41304
3266.41684	0.41272
3265.45244	0.41270
3264.48804	0.41301
3263.52364	0.41331
3262.55925	0.41392
3261.59485	0.41455
3260.63045	0.41373
3259.66605	0.41149
3258.70165	0.40991
3257.73726	0.41051
3256.77286	0.41244
3255.80846	0.41355
3254.84406	0.41333
3253.87966	0.41316
3252.91526	0.41336
3251.95087	0.41335
3250.98647	0.41352
3250.02207	0.41402
3249.05767	0.41437
3248.09327	0.41468
3247.12887	0.41487
3246.16448	0.41457
3245.20008	0.41405
3244.23568	0.41401
3243.27128	0.41449
3242.30688	0.41469
3241.34249	0.41449
3240.37809	0.41450
3239.41369	0.41420
3238.44929	0.41319
3237.48489	0.41250
3236.52049	0.41281
3235.55610	0.41400
3234.59170	0.41571
3233.62730	0.41694
3232.66290	0.41659
3231.69850	0.41542
3230.73410	0.41494
3229.76971	0.41505
3228.80531	0.41523
3227.84091	0.41533
3226.87651	0.41484
3225.91211	0.41409
3224.94772	0.41406
3223.98332	0.41454
3223.01892	0.41481
3222.05452	0.41503
3221.09012	0.41558
3220.12572	0.41617
3219.16133	0.41630
3218.19693	0.41617
3217.23253	0.41630
3216.26813	0.41640
3215.30373	0.41612
3214.33933	0.41586
3213.37494	0.41576
3212.41054	0.41565
3211.44614	0.41582
3210.48174	0.41644
3209.51734	0.41676
3208.55295	0.41665
3207.58855	0.41704
3206.62415	0.41752
3205.65975	0.41705
3204.69535	0.41609
3203.73095	0.41546
3202.76656	0.41518
3201.80216	0.41513
3200.83776	0.41515
3199.87336	0.41499
3198.90896	0.41522
3197.94456	0.41628
3196.98017	0.41705
3196.01577	0.41698
3195.05137	0.41703
3194.08697	0.41760
3193.12257	0.41814
3192.15817	0.41799
3191.19378	0.41742
3190.22938	0.41731
3189.26498	0.41746
3188.30058	0.41725
3187.33618	0.41696
3186.37179	0.41711
3185.40739	0.41761
3184.44299	0.41793
3183.47859	0.41783
3182.51419	0.41745
3181.54979	0.41702
3180.58540	0.41638
3179.62100	0.41563
3178.65660	0.41587
3177.69220	0.41719
3176.72780	0.41780
3175.76340	0.41709
3174.79901	0.41651
3173.83461	0.41696
3172.87021	0.41773
3171.90581	0.41835
3170.94141	0.41904
3169.97702	0.41906
3169.01262	0.41792
3168.04822	0.41675
3167.08382	0.41646
3166.11942	0.41685
3165.15502	0.41772
3164.19063	0.41876
3163.22623	0.41904
3162.26183	0.41875
3161.29743	0.41865
3160.33303	0.41801
3159.36863	0.41704
3158.40424	0.41695
3157.43984	0.41730
3156.47544	0.41750
3155.51104	0.41802
3154.54664	0.41894
3153.58225	0.41966
3152.61785	0.41964
3151.65345	0.41906
3150.68905	0.41880
3149.72465	0.41894
3148.76025	0.41903
3147.79586	0.41952
3146.83146	0.42031
3145.86706	0.42053
3144.90266	0.41996
3143.93826	0.41945
3142.97386	0.41993
3142.00947	0.42107
3141.04507	0.42181
3140.08067	0.42183
3139.11627	0.42110
3138.15187	0.41948
3137.18748	0.41811
3136.22308	0.41825
3135.25868	0.41881
3134.29428	0.41907
3133.32988	0.41972
3132.36548	0.42074
3131.40109	0.42183
3130.43669	0.42275
3129.47229	0.42274
3128.50789	0.42157
3127.54349	0.42031
3126.57909	0.42010
3125.61470	0.42035
3124.65030	0.42026
3123.68590	0.42056
3122.72150	0.42173
3121.75710	0.42271
3120.79271	0.42303
3119.82831	0.42323
3118.86391	0.42351
3117.89951	0.42380
3116.93511	0.42388
3115.97071	0.42362
3115.00632	0.42313
3114.04192	0.42261
3113.07752	0.42208
3112.11312	0.42154
3111.14872	0.42130
3110.18432	0.42145
3109.21993	0.42181
3108.25553	0.42225
3107.29113	0.42255
3106.32673	0.42286
3105.36233	0.42342
3104.39794	0.42364
3103.43354	0.42320
3102.46914	0.42270
3101.50474	0.42250
3100.54034	0.42246
3099.57594	0.42266
3098.61155	0.42287
3097.64715	0.42252
3096.68275	0.42191
3095.71835	0.42161
3094.75395	0.42173
3093.78955	0.42228
3092.82516	0.42285
3091.86076	0.42288
3090.89636	0.42211
3089.93196	0.42116
3088.96756	0.42124
3088.00317	0.42223
3087.03877	0.42304
3086.07437	0.42362
3085.10997	0.42417
3084.14557	0.42418
3083.18117	0.42394
3082.21678	0.42422
3081.25238	0.42441
3080.28798	0.42442
3079.32358	0.42491
3078.35918	0.42545
3077.39478	0.42531
3076.43039	0.42442
3075.46599	0.42352
3074.50159	0.42338
3073.53719	0.42392
3072.57279	0.42478
3071.60839	0.42544
3070.64400	0.42524
3069.67960	0.42471
3068.71520	0.42490
3067.75080	0.42542
3066.78640	0.42551
3065.82201	0.42545
3064.85761	0.42563
3063.89321	0.42584
3062.92881	0.42597
3061.96441	0.42601
3061.00001	0.42567
3060.03562	0.42511
3059.07122	0.42495
3058.10682	0.42547
3057.14242	0.42663
3056.17802	0.42773
3055.21362	0.42754
3054.24923	0.42639
3053.28483	0.42602
3052.32043	0.42655
3051.35603	0.42662
3050.39163	0.42590
3049.42724	0.42558
3048.46284	0.42650
3047.49844	0.42779
3046.53404	0.42818
3045.56964	0.42733
3044.60524	0.42631
3043.64085	0.42654
3042.67645	0.42759
3041.71205	0.42805
3040.74765	0.42738
3039.78325	0.42648
3038.81885	0.42654
3037.85446	0.42696
3036.89006	0.42670
3035.92566	0.42637
3034.96126	0.42669
3033.99686	0.42732
3033.03247	0.42792
3032.06807	0.42850
3031.10367	0.42886
3030.13927	0.42890
3029.17487	0.42867
3028.21047	0.42818
3027.24608	0.42778
3026.28168	0.42760
3025.31728	0.42750
3024.35288	0.42774
3023.38848	0.42820
3022.42408	0.42820
3021.45969	0.42794
3020.49529	0.42829
3019.53089	0.42909
3018.56649	0.42941
3017.60209	0.42886
3016.63770	0.42789
3015.67330	0.42746
3014.70890	0.42802
3013.74450	0.42876
3012.78010	0.42894
3011.81570	0.42875
3010.85131	0.42846
3009.88691	0.42813
3008.92251	0.42778
3007.95811	0.42730
3006.99371	0.42722
3006.02931	0.42809
3005.06492	0.42926
3004.10052	0.42962
3003.13612	0.42895
3002.17172	0.42834
3001.20732	0.42875
3000.24293	0.42953
2999.27853	0.42991
2998.31413	0.43000
2997.34973	0.42969
2996.38533	0.42966
2995.42093	0.43071
2994.45654	0.43167
2993.49214	0.43155
2992.52774	0.43111
2991.56334	0.43103
2990.59894	0.43096
2989.63454	0.43045
2988.67015	0.42996
2987.70575	0.42989
2986.74135	0.42974
2985.77695	0.42919
2984.81255	0.42893
2983.84816	0.42947
2982.88376	0.43027
2981.91936	0.43042
2980.95496	0.43005
2979.99056	0.42979
2979.02616	0.42941
2978.06177	0.42866
2977.09737	0.42820
2976.13297	0.42835
2975.16857	0.42848
2974.20417	0.42823
2973.23977	0.42812
2972.27538	0.42861
2971.31098	0.42912
2970.34658	0.42888
2969.38218	0.42802
2968.41778	0.42716
2967.45339	0.42662
2966.48899	0.42633
2965.52459	0.42612
2964.56019	0.42637
2963.59579	0.42723
2962.63139	0.42766
2961.66700	0.42706
2960.70260	0.42655
2959.73820	0.42669
2958.77380	0.42656
2957.80940	0.42598
2956.84500	0.42583
2955.88061	0.42667
2954.91621	0.42800
2953.95181	0.42856
2952.98741	0.42776
2952.02301	0.42660
2951.05861	0.42648
2950.09422	0.42765
2949.12982	0.42952
2948.16542	0.43103
2947.20102	0.43161
2946.23662	0.43159
2945.27223	0.43117
2944.30783	0.43055
2943.34343	0.42996
2942.37903	0.42957
2941.41463	0.42940
2940.45023	0.42893
2939.48584	0.42794
2938.52144	0.42731
2937.55704	0.42747
2936.59264	0.42792
2935.62824	0.42840
2934.66384	0.42869
2933.69945	0.42871
2932.73505	0.42891
2931.77065	0.42910
2930.80625	0.42884
2929.84185	0.42833
2928.87746	0.42787
2927.91306	0.42743
2926.94866	0.42712
2925.98426	0.42717
2925.01986	0.42718
2924.05546	0.42704
2923.09107	0.42729
2922.12667	0.42788
2921.16227	0.42829
2920.19787	0.42852
2919.23347	0.42897
2918.26907	0.42951
2917.30468	0.42991
2916.34028	0.43054
2915.37588	0.43151
2914.41148	0.43231
2913.44708	0.43233
2912.48269	0.43167
2911.51829	0.43097
2910.55389	0.43066
2909.58949	0.43074
2908.62509	0.43120
2907.66069	0.43180
2906.69630	0.43194
2905.73190	0.43178
2904.76750	0.43183
2903.80310	0.43230
2902.83870	0.43293
2901.87430	0.43284
2900.90991	0.43227
2899.94551	0.43261
2898.98111	0.43384
2898.01671	0.43461
2897.05231	0.43468
2896.08792	0.43480
2895.12352	0.43514
2894.15912	0.43532
2893.19472	0.43509
2892.23032	0.43456
2891.26592	0.43417
2890.30153	0.43437
2889.33713	0.43498
2888.37273	0.43538
2887.40833	0.43555
2886.44393	0.43592
2885.47953	0.43639
2884.51514	0.43633
2883.55074	0.43556
2882.58634	0.43497
2881.62194	0.43545
2880.65754	0.43647
2879.69315	0.43700
2878.72875	0.43695
2877.76435	0.43655
2876.79995	0.43574
2875.83555	0.43505
2874.87115	0.43534
2873.90676	0.43621
2872.94236	0.43677
2871.97796	0.43684
2871.01356	0.43629
2870.04916	0.43552
2869.08476	0.43549
2868.12037	0.43638
2867.15597	0.43751
2866.19157	0.43785
2865.22717	0.43724
2864.26277	0.43666
2863.29838	0.43654
2862.33398	0.43633
2861.36958	0.43592
2860.40518	0.43578
2859.44078	0.43566
2858.47638	0.43502
2857.51199	0.43445
2856.54759	0.43457
2855.58319	0.43462
2854.61879	0.43437
2853.65439	0.43481
2852.68999	0.43541
2851.72560	0.43513
2850.76120	0.43512
2849.79680	0.43638
2848.83240	0.43795
2847.86800	0.43891
2846.90360	0.43947
2845.93921	0.43968
2844.97481	0.43945
2844.01041	0.43918
2843.04601	0.43903
2842.08161	0.43892
2841.11722	0.43915
2840.15282	0.43971
2839.18842	0.43994
2838.22402	0.44012
2837.25962	0.44056
2836.29522	0.44068
2835.33083	0.44056
2834.36643	0.44082
2833.40203	0.44166
2832.43763	0.44255
2831.47323	0.44265
2830.50883	0.44215
2829.54444	0.44188
2828.58004	0.44174
2827.61564	0.44114
2826.65124	0.44050
2825.68684	0.44076
2824.72245	0.44173
2823.75805	0.44243
2822.79365	0.44275
2821.82925	0.44285
2820.86485	0.44251
2819.90045	0.44195
2818.93606	0.44165
2817.97166	0.44165
2817.00726	0.44188
2816.04286	0.44217
2815.07846	0.44224
2814.11406	0.44191
2813.14967	0.44131
2812.18527	0.44099
2811.22087	0.44161
2810.25647	0.44269
2809.29207	0.44307
2808.32768	0.44288
2807.36328	0.44280
2806.39888	0.44295
2805.43448	0.44316
2804.47008	0.44335
2803.50568	0.44334
2802.54129	0.44295
2801.57689	0.44259
2800.61249	0.44295
2799.64809	0.44382
2798.68369	0.44417
2797.71929	0.44380
2796.75490	0.44371
2795.79050	0.44441
2794.82610	0.44500
2793.86170	0.44477
2792.89730	0.44430
2791.93291	0.44429
2790.96851	0.44469
2790.00411	0.44519
2789.03971	0.44564
2788.07531	0.44589
2787.11091	0.44575
2786.14652	0.44531
2785.18212	0.44501
2784.21772	0.44502
2783.25332	0.44506
2782.28892	0.44499
2781.32452	0.44476
2780.36013	0.44434
2779.39573	0.44430
2778.43133	0.44496
2777.46693	0.44551
2776.50253	0.44520
2775.53814	0.44447
2774.57374	0.44426
2773.60934	0.44488
2772.64494	0.44563
2771.68054	0.44580
2770.71614	0.44566
2769.75175	0.44564
2768.78735	0.44551
2767.82295	0.44525
2766.85855	0.44536
2765.89415	0.44585
2764.92975	0.44612
2763.96536	0.44604
2763.00096	0.44603
2762.03656	0.44611
2761.07216	0.44594
2760.10776	0.44572
2759.14337	0.44579
2758.17897	0.44608
2757.21457	0.44655
2756.25017	0.44693
2755.28577	0.44683
2754.32137	0.44687
2753.35698	0.44748
2752.39258	0.44784
2751.42818	0.44744
2750.46378	0.44677
2749.49938	0.44649
2748.53498	0.44668
2747.57059	0.44685
2746.60619	0.44690
2745.64179	0.44687
2744.67739	0.44654
2743.71299	0.44654
2742.74860	0.44741
2741.78420	0.44811
2740.81980	0.44801
2739.85540	0.44795
2738.89100	0.44825
2737.92660	0.44830
2736.96221	0.44817
2735.99781	0.44814
2735.03341	0.44802
2734.06901	0.44802
2733.10461	0.44807
2732.14021	0.44783
2731.17582	0.44783
2730.21142	0.44836
2729.24702	0.44874
2728.28262	0.44867
2727.31822	0.44861
2726.35382	0.44857
2725.38943	0.44836
2724.42503	0.44837
2723.46063	0.44866
2722.49623	0.44873
2721.53183	0.44860
2720.56744	0.44868
2719.60304	0.44898
2718.63864	0.44915
2717.67424	0.44886
2716.70984	0.44865
2715.74544	0.44898
2714.78105	0.44936
2713.81665	0.44941
2712.85225	0.44957
2711.88785	0.45003
2710.92345	0.45039
2709.95905	0.45047
2708.99466	0.45047
2708.03026	0.45049
2707.06586	0.45051
2706.10146	0.45048
2705.13706	0.45065
2704.17267	0.45101
2703.20827	0.45113
2702.24387	0.45104
2701.27947	0.45111
2700.31507	0.45125
2699.35067	0.45116
2698.38628	0.45078
2697.42188	0.45053
2696.45748	0.45071
2695.49308	0.45102
2694.52868	0.45122
2693.56428	0.45130
2692.59989	0.45128
2691.63549	0.45137
2690.67109	0.45160
2689.70669	0.45177
2688.74229	0.45184
2687.77790	0.45191
2686.81350	0.45191
2685.84910	0.45165
2684.88470	0.45138
2683.92030	0.45120
2682.95590	0.45110
2681.99151	0.45115
2681.02711	0.45131
2680.06271	0.45165
2679.09831	0.45210
2678.13391	0.45231
2677.16951	0.45239
2676.20512	0.45262
2675.24072	0.45265
2674.27632	0.45237
2673.31192	0.45237
2672.34752	0.45260
2671.38313	0.45254
2670.41873	0.45247
2669.45433	0.45261
2668.48993	0.45271
2667.52553	0.45298
2666.56113	0.45355
2665.59674	0.45400
2664.63234	0.45419
2663.66794	0.45432
2662.70354	0.45469
2661.73914	0.45497
2660.77474	0.45451
2659.81035	0.45378
2658.84595	0.45375
2657.88155	0.45426
2656.91715	0.45469
2655.95275	0.45490
2654.98836	0.45476
2654.02396	0.45442
2653.05956	0.45441
2652.09516	0.45448
2651.13076	0.45412
2650.16636	0.45377
2649.20197	0.45378
2648.23757	0.45381
2647.27317	0.45393
2646.30877	0.45421
2645.34437	0.45425
2644.37997	0.45395
2643.41558	0.45362
2642.45118	0.45341
2641.48678	0.45323
2640.52238	0.45305
2639.55798	0.45295
2638.59359	0.45283
2637.62919	0.45284
2636.66479	0.45314
2635.70039	0.45365
2634.73599	0.45402
2633.77159	0.45341
2632.80720	0.45203
2631.84280	0.45124
2630.87840	0.45128
2629.91400	0.45134
2628.94960	0.45159
2627.98520	0.45225
2627.02081	0.45254
2626.05641	0.45252
2625.09201	0.45248
2624.12761	0.45191
2623.16321	0.45117
2622.19882	0.45127
2621.23442	0.45187
2620.27002	0.45208
2619.30562	0.45196
2618.34122	0.45166
2617.37682	0.45150
2616.41243	0.45203
2615.44803	0.45255
2614.48363	0.45195
2613.51923	0.45085
2612.55483	0.45053
2611.59043	0.45079
2610.62604	0.45096
2609.66164	0.45100
2608.69724	0.45124
2607.73284	0.45152
2606.76844	0.45131
2605.80404	0.45097
2604.83965	0.45105
2603.87525	0.45113
2602.91085	0.45058
2601.94645	0.44950
2600.98205	0.44933
2600.01766	0.45038
2599.05326	0.45103
2598.08886	0.45126
2597.12446	0.45152
2596.16006	0.45075
2595.19566	0.44930
2594.23127	0.44868
2593.26687	0.44871
2592.30247	0.44911
2591.33807	0.45038
2590.37367	0.45136
2589.40927	0.45068
2588.44488	0.44963
2587.48048	0.44947
2586.51608	0.44960
2585.55168	0.44970
2584.58728	0.44977
2583.62289	0.44985
2582.65849	0.45005
2581.69409	0.45017
2580.72969	0.45026
2579.76529	0.45016
2578.80089	0.44994
2577.83650	0.45017
2576.87210	0.45057
2575.90770	0.45055
2574.94330	0.45017
2573.97890	0.45011
2573.01450	0.45069
2572.05011	0.45103
2571.08571	0.45065
2570.12131	0.45026
2569.15691	0.45026
2568.19251	0.45054
2567.22812	0.45088
2566.26372	0.45106
2565.29932	0.45149
2564.33492	0.45251
2563.37052	0.45315
2562.40612	0.45221
2561.44173	0.45042
2560.47733	0.44941
2559.51293	0.44913
2558.54853	0.44938
2557.58413	0.45015
2556.61973	0.45083
2555.65534	0.45141
2554.69094	0.45123
2553.72654	0.44973
2552.76214	0.44882
2551.79774	0.44965
2550.83335	0.45080
2549.86895	0.45115
2548.90455	0.45083
2547.94015	0.45000
2546.97575	0.44926
2546.01135	0.44920
2545.04696	0.44944
2544.08256	0.44960
2543.11816	0.45006
2542.15376	0.45099
2541.18936	0.45145
2540.22496	0.45082
2539.26057	0.44987
2538.29617	0.44954
2537.33177	0.45033
2536.36737	0.45187
2535.40297	0.45271
2534.43858	0.45223
2533.47418	0.45160
2532.50978	0.45166
2531.54538	0.45219
2530.58098	0.45266
2529.61658	0.45249
2528.65219	0.45200
2527.68779	0.45182
2526.72339	0.45159
2525.75899	0.45108
2524.79459	0.45109
2523.83019	0.45209
2522.86580	0.45258
2521.90140	0.45174
2520.93700	0.45133
2519.97260	0.45227
2519.00820	0.45314
2518.04381	0.45255
2517.07941	0.45105
2516.11501	0.45059
2515.15061	0.45183
2514.18621	0.45309
2513.22181	0.45283
2512.25742	0.45173
2511.29302	0.45092
2510.32862	0.45066
2509.36422	0.45131
2508.39982	0.45269
2507.43542	0.45383
2506.47103	0.45433
2505.50663	0.45433
2504.54223	0.45373
2503.57783	0.45319
2502.61343	0.45373
2501.64904	0.45500
2500.68464	0.45559
2499.72024	0.45455
2498.75584	0.45251
2497.79144	0.45143
2496.82704	0.45236
2495.86265	0.45396
2494.89825	0.45425
2493.93385	0.45322
2492.96945	0.45240
2492.00505	0.45262
2491.04065	0.45324
2490.07626	0.45363
2489.11186	0.45395
2488.14746	0.45416
2487.18306	0.45441
2486.21866	0.45495
2485.25426	0.45538
2484.28987	0.45522
2483.32547	0.45478
2482.36107	0.45471
2481.39667	0.45458
2480.43227	0.45359
2479.46788	0.45266
2478.50348	0.45313
2477.53908	0.45477
2476.57468	0.45624
2475.61028	0.45655
2474.64588	0.45584
2473.68149	0.45508
2472.71709	0.45521
2471.75269	0.45577
2470.78829	0.45558
2469.82389	0.45490
2468.85949	0.45497
2467.89510	0.45618
2466.93070	0.45735
2465.96630	0.45719
2465.00190	0.45627
2464.03750	0.45593
2463.07311	0.45604
2462.10871	0.45595
2461.14431	0.45583
2460.17991	0.45582
2459.21551	0.45556
2458.25111	0.45481
2457.28672	0.45428
2456.32232	0.45494
2455.35792	0.45585
2454.39352	0.45552
2453.42912	0.45502
2452.46472	0.45537
2451.50033	0.45539
2450.53593	0.45489
2449.57153	0.45505
2448.60713	0.45597
2447.64273	0.45667
2446.67834	0.45688
2445.71394	0.45692
2444.74954	0.45666
2443.78514	0.45615
2442.82074	0.45620
2441.85634	0.45738
2440.89195	0.45887
2439.92755	0.45935
2438.96315	0.45866
2437.99875	0.45737
2437.03435	0.45641
2436.06995	0.45661
2435.10556	0.45753
2434.14116	0.45807
2433.17676	0.45795
2432.21236	0.45771
2431.24796	0.45766
2430.28357	0.45742
2429.31917	0.45688
2428.35477	0.45669
2427.39037	0.45681
2426.42597	0.45684
2425.46157	0.45690
2424.49718	0.45675
2423.53278	0.45657
2422.56838	0.45679
2421.60398	0.45650
2420.63958	0.45529
2419.67518	0.45443
2418.71079	0.45452
2417.74639	0.45500
2416.78199	0.45572
2415.81759	0.45652
2414.85319	0.45691
2413.88880	0.45697
2412.92440	0.45685
2411.96000	0.45697
2410.99560	0.45799
2410.03120	0.45912
2409.06680	0.45922
2408.10241	0.45820
2407.13801	0.45682
2406.17361	0.45604
2405.20921	0.45605
2404.24481	0.45670
2403.28041	0.45749
2402.31602	0.45797
2401.35162	0.45865
2400.38722	0.45944
2399.42282	0.45931
2398.45842	0.45830
2397.49403	0.45752
2396.52963	0.45727
2395.56523	0.45690
2394.60083	0.45676
2393.63643	0.45748
2392.67203	0.45811
2391.70764	0.45792
2390.74324	0.45772
2389.77884	0.45800
2388.81444	0.45830
2387.85004	0.45838
2386.88564	0.45831
2385.92125	0.45824
2384.95685	0.45819
2383.99245	0.45792
2383.02805	0.45709
2382.06365	0.45594
2381.09925	0.45548
2380.13486	0.45584
2379.17046	0.45559
2378.20606	0.45443
2377.24166	0.45386
2376.27726	0.45400
2375.31287	0.45391
2374.34847	0.45380
2373.38407	0.45356
2372.41967	0.45317
2371.45527	0.45359
2370.49087	0.45359
2369.52648	0.45142
2368.56208	0.44984
2367.59768	0.45137
2366.63328	0.45202
2365.66888	0.44854
2364.70448	0.44452
2363.74009	0.44398
2362.77569	0.44705
2361.81129	0.45135
2360.84689	0.45329
2359.88249	0.45062
2358.91810	0.44623
2357.95370	0.44597
2356.98930	0.45047
2356.02490	0.45459
2355.06050	0.45522
2354.09610	0.45463
2353.13171	0.45660
2352.16731	0.46083
2351.20291	0.46434
2350.23851	0.46524
2349.27411	0.46244
2348.30971	0.45758
2347.34532	0.45462
2346.38092	0.45489
2345.41652	0.45561
2344.45212	0.45607
2343.48772	0.45739
2342.52333	0.45838
2341.55893	0.45780
2340.59453	0.45720
2339.63013	0.45816
2338.66573	0.45985
2337.70133	0.46086
2336.73694	0.46192
2335.77254	0.46234
2334.80814	0.46037
2333.84374	0.45914
2332.87934	0.45962
2331.91494	0.45816
2330.95055	0.45543
2329.98615	0.45536
2329.02175	0.45766
2328.05735	0.45996
2327.09295	0.46308
2326.12856	0.46779
2325.16416	0.47224
2324.19976	0.47322
2323.23536	0.46962
2322.27096	0.46566
2321.30656	0.46445
2320.34217	0.46498
2319.37777	0.46627
2318.41337	0.46789
2317.44897	0.46886
2316.48457	0.46803
2315.52017	0.46588
2314.55578	0.46520
2313.59138	0.46686
2312.62698	0.46769
2311.66258	0.46681
2310.69818	0.46628
2309.73379	0.46662
2308.76939	0.46745
2307.80499	0.46786
2306.84059	0.46717
2305.87619	0.46619
2304.91179	0.46583
2303.94740	0.46629
2302.98300	0.46707
2302.01860	0.46798
2301.05420	0.46897
2300.08980	0.46909
2299.12540	0.46824
2298.16101	0.46815
2297.19661	0.46876
2296.23221	0.46811
2295.26781	0.46677
2294.30341	0.46688
2293.33902	0.46824
2292.37462	0.46899
2291.41022	0.46899
2290.44582	0.46910
2289.48142	0.46885
2288.51702	0.46821
2287.55263	0.46844
2286.58823	0.46985
2285.62383	0.47118
2284.65943	0.47166
2283.69503	0.47128
2282.73063	0.47048
2281.76624	0.47005
2280.80184	0.46980
2279.83744	0.46948
2278.87304	0.46933
2277.90864	0.46908
2276.94425	0.46887
2275.97985	0.46933
2275.01545	0.47031
2274.05105	0.47053
2273.08665	0.46899
2272.12225	0.46650
2271.15786	0.46547
2270.19346	0.46677
2269.22906	0.46773
2268.26466	0.46691
2267.30026	0.46602
2266.33586	0.46583
2265.37147	0.46624
2264.40707	0.46704
2263.44267	0.46750
2262.47827	0.46770
2261.51387	0.46741
2260.54947	0.46581
2259.58508	0.46467
2258.62068	0.46598
2257.65628	0.46764
2256.69188	0.46757
2255.72748	0.46685
2254.76309	0.46676
2253.79869	0.46759
2252.83429	0.46904
2251.86989	0.46972
2250.90549	0.46856
2249.94109	0.46713
2248.97670	0.46795
2248.01230	0.47022
2247.04790	0.47127
2246.08350	0.47057
2245.11910	0.46933
2244.15470	0.46844
2243.19031	0.46763
2242.22591	0.46645
2241.26151	0.46495
2240.29711	0.46446
2239.33271	0.46615
2238.36832	0.46835
2237.40392	0.46996
2236.43952	0.47098
2235.47512	0.47062
2234.51072	0.47011
2233.54632	0.47055
2232.58193	0.47036
2231.61753	0.46935
2230.65313	0.46890
2229.68873	0.46840
2228.72433	0.46749
2227.75993	0.46777
2226.79554	0.46844
2225.83114	0.46710
2224.86674	0.46428
2223.90234	0.46306
2222.93794	0.46520
2221.97355	0.46734
2221.00915	0.46670
2220.04475	0.46640
2219.08035	0.46767
2218.11595	0.46797
2217.15155	0.46778
2216.18716	0.46873
2215.22276	0.46968
2214.25836	0.46901
2213.29396	0.46732
2212.32956	0.46648
2211.36516	0.46744
2210.40077	0.47009
2209.43637	0.47288
2208.47197	0.47323
2207.50757	0.47164
2206.54317	0.47144
2205.57878	0.47232
2204.61438	0.47219
2203.64998	0.47171
2202.68558	0.47149
2201.72118	0.47144
2200.75678	0.47170
2199.79239	0.47080
2198.82799	0.46841
2197.86359	0.46683
2196.89919	0.46778
2195.93479	0.46986
2194.97039	0.47059
2194.00600	0.46984
2193.04160	0.46846
2192.07720	0.46744
2191.11280	0.46887
2190.14840	0.47278
2189.18401	0.47674
2188.21961	0.47833
2187.25521	0.47591
2186.29081	0.47102
2185.32641	0.46835
2184.36201	0.47121
2183.39762	0.47586
2182.43322	0.47596
2181.46882	0.47311
2180.50442	0.47046
2179.54002	0.46668
2178.57562	0.46306
2177.61123	0.46247
2176.64683	0.46448
2175.68243	0.46761
2174.71803	0.47111
2173.75363	0.47210
2172.78924	0.46928
2171.82484	0.46736
2170.86044	0.46871
2169.89604	0.47133
2168.93164	0.47494
2167.96724	0.47853
2167.00285	0.47974
2166.03845	0.47922
2165.07405	0.47757
2164.10965	0.47429
2163.14525	0.47305
2162.18085	0.47660
2161.21646	0.48040
2160.25206	0.47707
2159.28766	0.46484
2158.32326	0.45451
2157.35886	0.45550
2156.39447	0.46090
2155.43007	0.46193
2154.46567	0.46174
2153.50127	0.46471
2152.53687	0.46637
2151.57247	0.46488
2150.60808	0.46473
2149.64368	0.46628
2148.67928	0.46494
2147.71488	0.46000
2146.75048	0.45852
2145.78608	0.46340
2144.82169	0.46727
2143.85729	0.46640
2142.89289	0.46488
2141.92849	0.46480
2140.96409	0.46453
2139.99969	0.46363
2139.03530	0.46338
2138.07090	0.46501
2137.10650	0.46750
2136.14210	0.46818
2135.17770	0.46690
2134.21331	0.46482
2133.24891	0.46316
2132.28451	0.46276
2131.32011	0.46311
2130.35571	0.46443
2129.39131	0.46643
2128.42692	0.46718
2127.46252	0.46621
2126.49812	0.46488
2125.53372	0.46527
2124.56932	0.46697
2123.60492	0.46732
2122.64053	0.46702
2121.67613	0.46831
2120.71173	0.46980
2119.74733	0.46979
2118.78293	0.46979
2117.81854	0.47093
2116.85414	0.47223
2115.88974	0.47321
2114.92534	0.47346
2113.96094	0.47207
2112.99654	0.47008
2112.03215	0.46979
2111.06775	0.47207
2110.10335	0.47513
2109.13895	0.47591
2108.17455	0.47449
2107.21015	0.47304
2106.24576	0.47198
2105.28136	0.47168
2104.31696	0.47242
2103.35256	0.47307
2102.38816	0.47310
2101.42377	0.47329
2100.45937	0.47370
2099.49497	0.47336
2098.53057	0.47268
2097.56617	0.47247
2096.60177	0.47146
2095.63738	0.46974
2094.67298	0.46911
2093.70858	0.46909
2092.74418	0.47001
2091.77978	0.47270
2090.81538	0.47473
2089.85099	0.47448
2088.88659	0.47339
2087.92219	0.47332
2086.95779	0.47431
2085.99339	0.47462
2085.02900	0.47398
2084.06460	0.47318
2083.10020	0.47200
2082.13580	0.47106
2081.17140	0.47114
2080.20700	0.47166
2079.24261	0.47261
2078.27821	0.47400
2077.31381	0.47517
2076.34941	0.47632
2075.38501	0.47676
2074.42061	0.47566
2073.45622	0.47398
2072.49182	0.47302
2071.52742	0.47371
2070.56302	0.47474
2069.59862	0.47413
2068.63423	0.47303
2067.66983	0.47316
2066.70543	0.47399
2065.74103	0.47390
2064.77663	0.47332
2063.81223	0.47477
2062.84784	0.47812
2061.88344	0.48010
2060.91904	0.47977
2059.95464	0.47917
2058.99024	0.47939
2058.02584	0.47981
2057.06145	0.48008
2056.09705	0.48015
2055.13265	0.47864
2054.16825	0.47620
2053.20385	0.47712
2052.23946	0.48185
2051.27506	0.48584
2050.31066	0.48635
2049.34626	0.48416
2048.38186	0.48149
2047.41746	0.48084
2046.45307	0.48190
2045.48867	0.48124
2044.52427	0.47839
2043.55987	0.47518
2042.59547	0.47276
2041.63107	0.47254
2040.66668	0.47388
2039.70228	0.47476
2038.73788	0.47429
2037.77348	0.47280
2036.80908	0.47158
2035.84469	0.47213
2034.88029	0.47505
2033.91589	0.47906
2032.95149	0.48110
2031.98709	0.47945
2031.02269	0.47627
2030.05830	0.47413
2029.09390	0.47451
2028.12950	0.47694
2027.16510	0.47796
2026.20070	0.47668
2025.23630	0.47413
2024.27191	0.47230
2023.30751	0.47424
2022.34311	0.47792
2021.37871	0.47862
2020.41431	0.47484
2019.44991	0.46994
2018.48552	0.46942
2017.52112	0.47328
2016.55672	0.47767
2015.59232	0.48071
2014.62792	0.48156
2013.66353	0.47957
2012.69913	0.47580
2011.73473	0.47414
2010.77033	0.47743
2009.80593	0.48111
2008.84153	0.47984
2007.87714	0.47678
2006.91274	0.47628
2005.94834	0.47719
2004.98394	0.47655
2004.01954	0.47496
2003.05514	0.47636
2002.09075	0.47987
2001.12635	0.48093
2000.16195	0.47850
1999.19755	0.47494
1998.23315	0.47391
1997.26876	0.47617
1996.30436	0.47831
1995.33996	0.47820
1994.37556	0.47693
1993.41116	0.47655
1992.44676	0.47754
1991.48237	0.47752
1990.51797	0.47609
1989.55357	0.47657
1988.58917	0.47859
1987.62477	0.47954
1986.66037	0.48029
1985.69598	0.48136
1984.73158	0.48262
1983.76718	0.48393
1982.80278	0.48308
1981.83838	0.48033
1980.87399	0.47958
1979.90959	0.48196
1978.94519	0.48414
1977.98079	0.48333
1977.01639	0.48013
1976.05199	0.47610
1975.08760	0.47325
1974.12320	0.47292
1973.15880	0.47398
1972.19440	0.47556
1971.23000	0.47579
1970.26560	0.47224
1969.30121	0.46883
1968.33681	0.47083
1967.37241	0.47516
1966.40801	0.47547
1965.44361	0.47313
1964.47922	0.47376
1963.51482	0.47696
1962.55042	0.47826
1961.58602	0.47633
1960.62162	0.47272
1959.65722	0.46968
1958.69283	0.46853
1957.72843	0.46807
1956.76403	0.46781
1955.79963	0.46889
1954.83523	0.47049
1953.87083	0.47269
1952.90644	0.47660
1951.94204	0.47875
1950.97764	0.47731
1950.01324	0.47644
1949.04884	0.47813
1948.08445	0.47982
1947.12005	0.47894
1946.15565	0.47632
1945.19125	0.47441
1944.22685	0.47371
1943.26245	0.47465
1942.29806	0.47694
1941.33366	0.47760
1940.36926	0.47614
1939.40486	0.47476
1938.44046	0.47404
1937.47606	0.47371
1936.51167	0.47354
1935.54727	0.47281
1934.58287	0.47246
1933.61847	0.47408
1932.65407	0.47610
1931.68968	0.47555
1930.72528	0.47304
1929.76088	0.47214
1928.79648	0.47358
1927.83208	0.47509
1926.86768	0.47536
1925.90329	0.47480
1924.93889	0.47498
1923.97449	0.47713
1923.01009	0.47999
1922.04569	0.48092
1921.08129	0.47980
1920.11690	0.47758
1919.15250	0.47550
1918.18810	0.47618
1917.22370	0.47824
1916.25930	0.47798
1915.29490	0.47668
1914.33051	0.47656
1913.36611	0.47708
1912.40171	0.47665
1911.43731	0.47594
1910.47291	0.47656
1909.50852	0.47692
1908.54412	0.47548
1907.57972	0.47420
1906.61532	0.47440
1905.65092	0.47561
1904.68652	0.47727
1903.72213	0.47862
1902.75773	0.47926
1901.79333	0.47907
1900.82893	0.47813
1899.86453	0.47680
1898.90013	0.47539
1897.93574	0.47468
1896.97134	0.47539
1896.00694	0.47721
1895.04254	0.47903
1894.07814	0.47980
1893.11375	0.47944
1892.14935	0.47822
1891.18495	0.47686
1890.22055	0.47725
1889.25615	0.47892
1888.29175	0.47863
1887.32736	0.47697
1886.36296	0.47626
1885.39856	0.47655
1884.43416	0.47687
1883.46976	0.47659
1882.50536	0.47664
1881.54097	0.47755
1880.57657	0.47761
1879.61217	0.47655
1878.64777	0.47591
1877.68337	0.47602
1876.71898	0.47647
1875.75458	0.47689
1874.79018	0.47695
1873.82578	0.47638
1872.86138	0.47525
1871.89698	0.47410
1870.93259	0.47330
1869.96819	0.47385
1869.00379	0.47637
1868.03939	0.47789
1867.07499	0.47686
1866.11059	0.47579
1865.14620	0.47625
1864.18180	0.47733
1863.21740	0.47781
1862.25300	0.47774
1861.28860	0.47788
1860.32421	0.47843
1859.35981	0.47915
1858.39541	0.48016
1857.43101	0.48123
1856.46661	0.48238
1855.50221	0.48375
1854.53782	0.48456
1853.57342	0.48464
1852.60902	0.48469
1851.64462	0.48461
1850.68022	0.48378
1849.71582	0.48238
1848.75143	0.48156
1847.78703	0.48219
1846.82263	0.48258
1845.85823	0.48103
1844.89383	0.48097
1843.92944	0.48464
1842.96504	0.48618
1842.00064	0.48557
1841.03624	0.48547
1840.07184	0.48517
1839.10744	0.48439
1838.14305	0.48468
1837.17865	0.48675
1836.21425	0.48829
1835.24985	0.48797
1834.28545	0.48782
1833.32105	0.48877
1832.35666	0.48899
1831.39226	0.48767
1830.42786	0.48771
1829.46346	0.49035
1828.49906	0.49132
1827.53467	0.48973
1826.57027	0.48820
1825.60587	0.48976
1824.64147	0.49358
1823.67707	0.49539
1822.71267	0.49562
1821.74828	0.49593
1820.78388	0.49623
1819.81948	0.49616
1818.85508	0.49585
1817.89068	0.49570
1816.92628	0.49592
1815.96189	0.49668
1814.99749	0.49730
1814.03309	0.49733
1813.06869	0.49730
1812.10429	0.49723
1811.13990	0.49760
1810.17550	0.49830
1809.21110	0.49791
1808.24670	0.49720
1807.28230	0.49735
1806.31790	0.49738
1805.35351	0.49683
1804.38911	0.49583
1803.42471	0.49428
1802.46031	0.49295
1801.49591	0.49176
1800.53151	0.49067
1799.56712	0.49122
1798.60272	0.49195
1797.63832	0.49104
1796.67392	0.49030
1795.70952	0.49031
1794.74512	0.48839
1793.78073	0.48507
1792.81633	0.48467
1791.85193	0.48691
1790.88753	0.48779
1789.92313	0.48742
1788.95874	0.48615
1787.99434	0.48448
1787.02994	0.48324
1786.06554	0.48270
1785.10114	0.48369
1784.13674	0.48524
1783.17235	0.48551
1782.20795	0.48559
1781.24355	0.48783
1780.27915	0.49171
1779.31475	0.49375
1778.35035	0.49394
1777.38596	0.49426
1776.42156	0.49565
1775.45716	0.49720
1774.49276	0.49598
1773.52836	0.49422
1772.56397	0.49877
1771.59957	0.50697
1770.63517	0.50952
1769.67077	0.50756
1768.70637	0.50743
1767.74197	0.51146
1766.77758	0.51379
1765.81318	0.51361
1764.84878	0.51328
1763.88438	0.51182
1762.91998	0.51010
1761.95558	0.51227
1760.99119	0.51597
1760.02679	0.51624
1759.06239	0.51500
1758.09799	0.51448
1757.13359	0.51701
1756.16920	0.52151
1755.20480	0.52341
1754.24040	0.52365
1753.27600	0.52301
1752.31160	0.52237
1751.34720	0.52555
1750.38281	0.52881
1749.41841	0.52918
1748.45401	0.53145
1747.48961	0.53556
1746.52521	0.53926
1745.56081	0.54256
1744.59642	0.54514
1743.63202	0.54793
1742.66762	0.54953
1741.70322	0.54704
1740.73882	0.54450
1739.77443	0.54807
1738.81003	0.55223
1737.84563	0.55231
1736.88123	0.55057
1735.91683	0.54640
1734.95243	0.54322
1733.98804	0.54894
1733.02364	0.55135
1732.05924	0.54450
1731.09484	0.53649
1730.13044	0.53178
1729.16604	0.52862
1728.20165	0.52429
1727.23725	0.52032
1726.27285	0.51776
1725.30845	0.51561
1724.34405	0.51353
1723.37966	0.51224
1722.41526	0.51134
1721.45086	0.50966
1720.48646	0.50638
1719.52206	0.50193
1718.55766	0.50077
1717.59327	0.50548
1716.62887	0.50675
1715.66447	0.50531
1714.70007	0.50655
1713.73567	0.50777
1712.77127	0.50636
1711.80688	0.50458
1710.84248	0.50397
1709.87808	0.50412
1708.91368	0.50307
1707.94928	0.50065
1706.98489	0.49961
1706.02049	0.50073
1705.05609	0.50212
1704.09169	0.50300
1703.12729	0.50111
1702.16289	0.49510
1701.19850	0.49031
1700.23410	0.50050
1699.26970	0.50761
1698.30530	0.50230
1697.34090	0.49524
1696.37650	0.49516
1695.41211	0.50453
1694.44771	0.50667
1693.48331	0.50341
1692.51891	0.50109
1691.55451	0.49993
1690.59012	0.49949
1689.62572	0.49997
1688.66132	0.50067
1687.69692	0.50031
1686.73252	0.49681
1685.76812	0.49139
1684.80373	0.49292
1683.83933	0.50522
1682.87493	0.50908
1681.91053	0.50590
1680.94613	0.50327
1679.98173	0.50334
1679.01734	0.50334
1678.05294	0.50172
1677.08854	0.49871
1676.12414	0.49729
1675.15974	0.50247
1674.19534	0.50533
1673.23095	0.50204
1672.26655	0.49956
1671.30215	0.49937
1670.33775	0.49874
1669.37335	0.50087
1668.40896	0.50495
1667.44456	0.50481
1666.48016	0.50297
1665.51576	0.50177
1664.55136	0.49997
1663.58696	0.49871
1662.62257	0.50095
1661.65817	0.50325
1660.69377	0.50283
1659.72937	0.50204
1658.76497	0.50193
1657.80057	0.50207
1656.83618	0.50111
1655.87178	0.49774
1654.90738	0.49228
1653.94298	0.48900
1652.97858	0.50163
1652.01419	0.51107
1651.04979	0.50776
1650.08539	0.50250
1649.12099	0.49902
1648.15659	0.49819
1647.19219	0.49949
1646.22780	0.50340
1645.26340	0.50675
1644.29900	0.50602
1643.33460	0.50421
1642.37020	0.50366
1641.40580	0.50377
1640.44141	0.50386
1639.47701	0.50313
1638.51261	0.50156
1637.54821	0.49960
1636.58381	0.49834
1635.61942	0.50369
1634.65502	0.51033
1633.69062	0.50881
1632.72622	0.50584
1631.76182	0.50478
1630.79742	0.50410
1629.83303	0.50256
1628.86863	0.50149
1627.90423	0.50326
1626.93983	0.50522
1625.97543	0.50359
1625.01103	0.50026
1624.04664	0.50055
1623.08224	0.50564
1622.11784	0.50748
1621.15344	0.50571
1620.18904	0.50439
1619.22465	0.50315
1618.26025	0.50053
1617.29585	0.50100
1616.33145	0.50786
1615.36705	0.50989
1614.40265	0.50736
1613.43826	0.50561
1612.47386	0.50514
1611.50946	0.50466
1610.54506	0.50421
1609.58066	0.50466
1608.61626	0.50522
1607.65187	0.50529
1606.68747	0.50567
1605.72307	0.50601
1604.75867	0.50553
1603.79427	0.50471
1602.82988	0.50434
1601.86548	0.50465
1600.90108	0.50542
1599.93668	0.50605
1598.97228	0.50613
1598.00788	0.50590
1597.04349	0.50549
1596.07909	0.50500
1595.11469	0.50495
1594.15029	0.50540
1593.18589	0.50552
1592.22149	0.50518
1591.25710	0.50506
1590.29270	0.50537
1589.32830	0.50551
1588.36390	0.50503
1587.39950	0.50444
1586.43511	0.50437
1585.47071	0.50474
1584.50631	0.50476
1583.54191	0.50439
1582.57751	0.50427
1581.61311	0.50417
1580.64872	0.50367
1579.68432	0.50314
1578.71992	0.50196
1577.75552	0.49928
1576.79112	0.49952
1575.82672	0.50633
1574.86233	0.50854
1573.89793	0.50633
1572.93353	0.50487
1571.96913	0.50341
1571.00473	0.50107
1570.04034	0.50213
1569.07594	0.50676
1568.11154	0.50703
1567.14714	0.50428
1566.18274	0.50257
1565.21834	0.50363
1564.25395	0.50577
1563.28955	0.50526
1562.32515	0.50160
1561.36075	0.49634
1560.39635	0.49323
1559.43195	0.49833
1558.46756	0.50795
1557.50316	0.51142
1556.53876	0.50769
1555.57436	0.50273
1554.60996	0.50295
1553.64556	0.50681
1552.68117	0.50684
1551.71677	0.50460
1550.75237	0.50368
1549.78797	0.50483
1548.82357	0.50542
1547.85918	0.50426
1546.89478	0.50234
1545.93038	0.50209
1544.96598	0.50455
1544.00158	0.50439
1543.03718	0.50138
1542.07279	0.50052
1541.10839	0.49997
1540.14399	0.50017
1539.17959	0.50759
1538.21519	0.51113
1537.25079	0.50842
1536.28640	0.50496
1535.32200	0.50192
1534.35760	0.50109
1533.39320	0.50533
1532.42880	0.50869
1531.46441	0.50810
1530.50001	0.50631
1529.53561	0.50448
1528.57121	0.50423
1527.60681	0.50514
1526.64241	0.50512
1525.67802	0.50579
1524.71362	0.50617
1523.74922	0.50389
1522.78482	0.50174
1521.82042	0.50358
1520.85602	0.50843
1519.89163	0.50914
1518.92723	0.50526
1517.96283	0.50251
1516.99843	0.50525
1516.03403	0.50799
1515.06964	0.50746
1514.10524	0.50554
1513.14084	0.50411
1512.17644	0.50480
1511.21204	0.50487
1510.24764	0.50292
1509.28325	0.50061
1508.31885	0.49819
1507.35445	0.49825
1506.39005	0.50527
1505.42565	0.51026
1504.46125	0.50861
1503.49686	0.50540
1502.53246	0.50380
1501.56806	0.50352
1500.60366	0.50214
1499.63926	0.50107
1498.67487	0.50234
1497.71047	0.50224
1496.74607	0.50178
1495.78167	0.50414
1494.81727	0.50470
1493.85287	0.50323
1492.88848	0.50176
1491.92408	0.49993
1490.95968	0.49964
1489.99528	0.50255
1489.03088	0.50370
1488.06648	0.50259
1487.10209	0.50304
1486.13769	0.50373
1485.17329	0.50254
1484.20889	0.50119
1483.24449	0.50057
1482.28010	0.50052
1481.31570	0.50128
1480.35130	0.50195
1479.38690	0.50151
1478.42250	0.50008
1477.45810	0.49876
1476.49371	0.49950
1475.52931	0.50007
1474.56491	0.49760
1473.60051	0.49563
1472.63611	0.49843
1471.67171	0.50266
1470.70732	0.50327
1469.74292	0.50154
1468.77852	0.50008
1467.81412	0.49932
1466.84972	0.49795
1465.88533	0.49654
1464.92093	0.49804
1463.95653	0.50047
1462.99213	0.50028
1462.02773	0.49923
1461.06333	0.49796
1460.09894	0.49620
1459.13454	0.49476
1458.17014	0.49460
1457.20574	0.49855
1456.24134	0.50365
1455.27694	0.50352
1454.31255	0.50101
1453.34815	0.49922
1452.38375	0.49898
1451.41935	0.49921
1450.45495	0.49839
1449.49055	0.49683
1448.52616	0.49660
1447.56176	0.49818
1446.59736	0.49875
1445.63296	0.49809
1444.66856	0.49791
1443.70417	0.49803
1442.73977	0.49799
1441.77537	0.49805
1440.81097	0.49819
1439.84657	0.49820
1438.88217	0.49687
1437.91778	0.49451
1436.95338	0.49616
1435.98898	0.50047
1435.02458	0.49981
1434.06018	0.49771
1433.09578	0.49728
1432.13139	0.49696
1431.16699	0.49606
1430.20259	0.49652
1429.23819	0.49785
1428.27379	0.49782
1427.30940	0.49708
1426.34500	0.49645
1425.38060	0.49582
1424.41620	0.49640
1423.45180	0.49793
1422.48740	0.49799
1421.52301	0.49611
1420.55861	0.49415
1419.59421	0.49564
1418.62981	0.49875
1417.66541	0.49845
1416.70101	0.49723
1415.73662	0.49666
1414.77222	0.49629
1413.80782	0.49595
1412.84342	0.49574
1411.87902	0.49581
1410.91463	0.49579
1409.95023	0.49543
1408.98583	0.49507
1408.02143	0.49501
1407.05703	0.49488
1406.09263	0.49460
1405.12824	0.49534
1404.16384	0.49646
1403.19944	0.49628
1402.23504	0.49553
1401.27064	0.49472
1400.30624	0.49419
1399.34185	0.49546
1398.37745	0.49718
1397.41305	0.49663
1396.44865	0.49512
1395.48425	0.49498
1394.51986	0.49630
1393.55546	0.49668
1392.59106	0.49576
1391.62666	0.49509
1390.66226	0.49490
1389.69786	0.49436
1388.73347	0.49392
1387.76907	0.49495
1386.80467	0.49622
1385.84027	0.49562
1384.87587	0.49471
1383.91147	0.49492
1382.94708	0.49527
1381.98268	0.49494
1381.01828	0.49434
1380.05388	0.49395
1379.08948	0.49403
1378.12509	0.49465
1377.16069	0.49502
1376.19629	0.49473
1375.23189	0.49475
1374.26749	0.49563
1373.30309	0.49625
1372.33870	0.49582
1371.37430	0.49478
1370.40990	0.49392
1369.44550	0.49409
1368.48110	0.49505
1367.51670	0.49527
1366.55231	0.49469
1365.58791	0.49407
1364.62351	0.49332
1363.65911	0.49319
1362.69471	0.49399
1361.73032	0.49429
1360.76592	0.49417
1359.80152	0.49417
1358.83712	0.49391
1357.87272	0.49354
1356.90832	0.49351
1355.94393	0.49372
1354.97953	0.49368
1354.01513	0.49317
1353.05073	0.49270
1352.08633	0.49266
1351.12193	0.49280
1350.15754	0.49294
1349.19314	0.49299
1348.22874	0.49271
1347.26434	0.49225
1346.29994	0.49189
1345.33555	0.49151
1344.37115	0.49122
1343.40675	0.49123
1342.44235	0.49132
1341.47795	0.49139
1340.51355	0.49182
1339.54916	0.49259
1338.58476	0.49321
1337.62036	0.49358
1336.65596	0.49368
1335.69156	0.49335
1334.72716	0.49264
1333.76277	0.49169
1332.79837	0.49094
1331.83397	0.49084
1330.86957	0.49097
1329.90517	0.49086
1328.94077	0.49095
1327.97638	0.49114
1327.01198	0.49106
1326.04758	0.49093
1325.08318	0.49083
1324.11878	0.49077
1323.15439	0.49090
1322.18999	0.49109
1321.22559	0.49099
1320.26119	0.49076
1319.29679	0.49080
1318.33239	0.49125
1317.36800	0.49193
1316.40360	0.49214
1315.43920	0.49185
1314.47480	0.49174
1313.51040	0.49184
1312.54600	0.49197
1311.58161	0.49221
1310.61721	0.49224
1309.65281	0.49190
1308.68841	0.49159
1307.72401	0.49160
1306.75962	0.49184
1305.79522	0.49211
1304.83082	0.49220
1303.86642	0.49212
1302.90202	0.49210
1301.93762	0.49227
1300.97323	0.49230
1300.00883	0.49182
1299.04443	0.49118
1298.08003	0.49076
1297.11563	0.49066
1296.15123	0.49087
1295.18684	0.49107
1294.22244	0.49099
1293.25804	0.49078
1292.29364	0.49085
1291.32924	0.49121
1290.36485	0.49143
1289.40045	0.49144
1288.43605	0.49147
1287.47165	0.49153
1286.50725	0.49135
1285.54285	0.49088
1284.57846	0.49048
1283.61406	0.49031
1282.64966	0.49050
1281.68526	0.49078
1280.72086	0.49065
1279.75646	0.49031
1278.79207	0.49001
1277.82767	0.48972
1276.86327	0.48950
1275.89887	0.48946
1274.93447	0.48956
1273.97008	0.48966
1273.00568	0.48972
1272.04128	0.48977
1271.07688	0.48964
1270.11248	0.48921
1269.14808	0.48890
1268.18369	0.48920
1267.21929	0.48984
1266.25489	0.49028
1265.29049	0.49022
1264.32609	0.48990
1263.36169	0.48991
1262.39730	0.49029
1261.43290	0.49041
1260.46850	0.49013
1259.50410	0.48987
1258.53970	0.48980
1257.57531	0.48978
1256.61091	0.48995
1255.64651	0.49049
1254.68211	0.49079
1253.71771	0.49039
1252.75331	0.48995
1251.78892	0.48992
1250.82452	0.49002
1249.86012	0.48986
1248.89572	0.48943
1247.93132	0.48896
1246.96692	0.48834
1246.00253	0.48745
1245.03813	0.48672
1244.07373	0.48651
1243.10933	0.48638
1242.14493	0.48612
1241.18054	0.48596
1240.21614	0.48531
1239.25174	0.48404
1238.28734	0.48330
1237.32294	0.48331
1236.35854	0.48317
1235.39415	0.48257
1234.42975	0.48181
1233.46535	0.48123
1232.50095	0.48110
1231.53655	0.48109
1230.57215	0.48097
1229.60776	0.48098
1228.64336	0.48094
1227.67896	0.48046
1226.71456	0.47981
1225.75016	0.47933
1224.78577	0.47887
1223.82137	0.47806
1222.85697	0.47687
1221.89257	0.47581
1220.92817	0.47521
1219.96377	0.47461
1218.99938	0.47359
1218.03498	0.47272
1217.07058	0.47233
1216.10618	0.47191
1215.14178	0.47119
1214.17738	0.47045
1213.21299	0.46987
1212.24859	0.46949
1211.28419	0.46929
1210.31979	0.46904
1209.35539	0.46863
1208.39099	0.46833
1207.42660	0.46822
1206.46220	0.46811
1205.49780	0.46785
1204.53340	0.46740
1203.56900	0.46688
1202.60461	0.46627
1201.64021	0.46565
1200.67581	0.46557
1199.71141	0.46599
1198.74701	0.46617
1197.78261	0.46589
1196.81822	0.46530
1195.85382	0.46460
1194.88942	0.46408
1193.92502	0.46410
1192.96062	0.46448
1191.99622	0.46417
1191.03183	0.46299
1190.06743	0.46214
1189.10303	0.46195
1188.13863	0.46188
1187.17423	0.46170
1186.20984	0.46144
1185.24544	0.46103
1184.28104	0.46058
1183.31664	0.46031
1182.35224	0.45995
1181.38784	0.45933
1180.42345	0.45895
1179.45905	0.45893
1178.49465	0.45880
1177.53025	0.45837
1176.56585	0.45776
1175.60145	0.45730
1174.63706	0.45723
1173.67266	0.45702
1172.70826	0.45648
1171.74386	0.45637
1170.77946	0.45640
1169.81507	0.45560
1168.85067	0.45450
1167.88627	0.45411
1166.92187	0.45416
1165.95747	0.45401
1164.99307	0.45349
1164.02868	0.45270
1163.06428	0.45188
1162.09988	0.45139
1161.13548	0.45139
1160.17108	0.45154
1159.20668	0.45149
1158.24229	0.45120
1157.27789	0.45079
1156.31349	0.45051
1155.34909	0.45031
1154.38469	0.44977
1153.42030	0.44899
1152.45590	0.44832
1151.49150	0.44771
1150.52710	0.44713
1149.56270	0.44676
1148.59830	0.44652
1147.63391	0.44610
1146.66951	0.44559
1145.70511	0.44534
1144.74071	0.44517
1143.77631	0.44480
1142.81191	0.44424
1141.84752	0.44382
1140.88312	0.44368
1139.91872	0.44332
1138.95432	0.44243
1137.98992	0.44158
1137.02553	0.44123
1136.06113	0.44091
1135.09673	0.44025
1134.13233	0.43964
1133.16793	0.43915
1132.20353	0.43853
1131.23914	0.43780
1130.27474	0.43704
1129.31034	0.43647
1128.34594	0.43649
1127.38154	0.43664
1126.41714	0.43624
1125.45275	0.43552
1124.48835	0.43480
1123.52395	0.43400
1122.55955	0.43330
1121.59515	0.43315
1120.63076	0.43358
1119.66636	0.43406
1118.70196	0.43383
1117.73756	0.43252
1116.77316	0.43097
1115.80876	0.43020
1114.84437	0.43004
1113.87997	0.42983
1112.91557	0.42939
1111.95117	0.42877
1110.98677	0.42799
1110.02237	0.42725
1109.05798	0.42693
1108.09358	0.42694
1107.12918	0.42677
1106.16478	0.42617
1105.20038	0.42558
1104.23598	0.42531
1103.27159	0.42484
1102.30719	0.42375
1101.34279	0.42265
1100.37839	0.42201
1099.41399	0.42175
1098.44960	0.42186
1097.48520	0.42195
1096.52080	0.42135
1095.55640	0.41989
1094.59200	0.41854
1093.62760	0.41835
1092.66321	0.41859
1091.69881	0.41844
1090.73441	0.41836
1089.77001	0.41822
1088.80561	0.41781
1087.84121	0.41728
1086.87682	0.41644
1085.91242	0.41552
1084.94802	0.41507
1083.98362	0.41490
1083.01922	0.41454
1082.05483	0.41405
1081.09043	0.41380
1080.12603	0.41335
1079.16163	0.41221
1078.19723	0.41149
1077.23283	0.41165
1076.26844	0.41147
1075.30404	0.41085
1074.33964	0.41046
1073.37524	0.40994
1072.41084	0.40921
1071.44644	0.40888
1070.48205	0.40872
1069.51765	0.40817
1068.55325	0.40748
1067.58885	0.40697
1066.62445	0.40663
1065.66006	0.40625
1064.69566	0.40572
1063.73126	0.40531
1062.76686	0.40509
1061.80246	0.40481
1060.83806	0.40441
1059.87367	0.40399
1058.90927	0.40359
1057.94487	0.40313
1056.98047	0.40276
1056.01607	0.40286
1055.05167	0.40312
1054.08728	0.40296
1053.12288	0.40243
1052.15848	0.40158
1051.19408	0.40048
1050.22968	0.39957
1049.26529	0.39877
1048.30089	0.39770
1047.33649	0.39689
1046.37209	0.39679
1045.40769	0.39689
1044.44329	0.39662
1043.47890	0.39611
1042.51450	0.39593
1041.55010	0.39585
1040.58570	0.39501
1039.62130	0.39343
1038.65690	0.39207
1037.69251	0.39171
1036.72811	0.39193
1035.76371	0.39156
1034.79931	0.39037
1033.83491	0.38920
1032.87052	0.38853
1031.90612	0.38827
1030.94172	0.38801
1029.97732	0.38730
1029.01292	0.38639
1028.04852	0.38566
1027.08413	0.38510
1026.11973	0.38484
1025.15533	0.38454
1024.19093	0.38390
1023.22653	0.38335
1022.26213	0.38309
1021.29774	0.38290
1020.33334	0.38259
1019.36894	0.38211
1018.40454	0.38155
1017.44014	0.38104
1016.47575	0.38040
1015.51135	0.37979
1014.54695	0.37975
1013.58255	0.37962
1012.61815	0.37848
1011.65375	0.37728
1010.68936	0.37697
1009.72496	0.37698
1008.76056	0.37695
1007.79616	0.37690
1006.83176	0.37654
1005.86736	0.37597
1004.90297	0.37532
1003.93857	0.37440
1002.97417	0.37335
1002.00977	0.37290
1001.04537	0.37320
1000.08098	0.37323
999.11658	0.37254
998.15218	0.37158
997.18778	0.37048
996.22338	0.36950
995.25898	0.36898
994.29459	0.36880
993.33019	0.36854
992.36579	0.36795
991.40139	0.36746
990.43699	0.36752
989.47259	0.36782
988.50820	0.36765
987.54380	0.36680
986.57940	0.36599
985.61500	0.36590
984.65060	0.36612
983.68620	0.36574
982.72181	0.36483
981.75741	0.36407
980.79301	0.36347
979.82861	0.36283
978.86421	0.36263
977.89982	0.36296
976.93542	0.36325
975.97102	0.36349
975.00662	0.36354
974.04222	0.36314
973.07782	0.36290
972.11343	0.36328
971.14903	0.36387
970.18463	0.36425
969.22023	0.36447
968.25583	0.36466
967.29143	0.36479
966.32704	0.36472
965.36264	0.36421
964.39824	0.36337
963.43384	0.36276
962.46944	0.36271
961.50505	0.36294
960.54065	0.36312
959.57625	0.36353
958.61185	0.36396
957.64745	0.36350
956.68305	0.36230
955.71866	0.36133
954.75426	0.36132
953.78986	0.36203
952.82546	0.36287
951.86106	0.36255
950.89666	0.36164
949.93227	0.36114
948.96787	0.36104
948.00347	0.36095
947.03907	0.36081
946.07467	0.36152
945.11028	0.36420
944.14588	0.36941
943.18148	0.37770
942.21708	0.39022
941.25268	0.40986
940.28828	0.44006
939.32389	0.47856
938.35949	0.51443
937.39509	0.53728
936.43069	0.54894
935.46629	0.55827
934.50189	0.56901
933.53750	0.58016
932.57310	0.58975
931.60870	0.59572
930.64430	0.59886
929.67990	0.60253
928.71551	0.60953
927.75111	0.62217
926.78671	0.64270
925.82231	0.67169
924.85791	0.70735
923.89351	0.74731
922.92912	0.79047
921.96472	0.83713
921.00032	0.88857
920.03592	0.94598
919.07152	1.00927
918.10712	1.07620
917.14273	1.14176
916.17833	1.19897
915.21393	1.24283
914.24953	1.27241
913.28513	1.28698
912.32074	1.28762
911.35634	1.28641
910.39194	1.30278
909.42754	1.34421
908.46314	1.39935
907.49874	1.45248
906.53435	1.49657
905.56995	1.53226
904.60555	1.56229
903.64115	1.58886
902.67675	1.61401
901.71235	1.63920
900.74796	1.66423
899.78356	1.68913
898.81916	1.71516
897.85476	1.74262
896.89036	1.77028
895.92597	1.79823
894.96157	1.82774
893.99717	1.85906
893.03277	1.89135
892.06837	1.92301
891.10397	1.95141
890.13958	1.97371
889.17518	1.98879
888.21078	1.99724
887.24638	2.00000
886.28198	1.99903
885.31758	1.99649
884.35319	1.99260
883.38879	1.98697
882.42439	1.98038
881.45999	1.97345
880.49559	1.96523
879.53120	1.95525
878.56680	1.94525
877.60240	1.93620
876.63800	1.92671
875.67360	1.91573
874.70920	1.90393
873.74481	1.89235
872.78041	1.88155
871.81601	1.87155
870.85161	1.86081
869.88721	1.84839
868.92281	1.83579
867.95842	1.82351
866.99402	1.81081
866.02962	1.79810
865.06522	1.78573
864.10082	1.77301
863.13642	1.76020
862.17203	1.74821
861.20763	1.73600
860.24323	1.72269
859.27883	1.70914
858.31443	1.69583
857.35004	1.68261
856.38564	1.66927
855.42124	1.65604
854.45684	1.64317
853.49244	1.62936
852.52804	1.61389
851.56365	1.59789
850.59925	1.58142
849.63485	1.56377
848.67045	1.54553
847.70605	1.52671
846.74165	1.50776
845.77726	1.49446
844.81286	1.49780
843.84846	1.52185
842.88406	1.55231
841.91966	1.56928
840.95527	1.56701
839.99087	1.55204
839.02647	1.53279
838.06207	1.51398
837.09767	1.49623
836.13327	1.47958
835.16888	1.46417
834.20448	1.44986
833.24008	1.43646
832.27568	1.42350
831.31128	1.41075
830.34688	1.39866
829.38249	1.38752
828.41809	1.37672
827.45369	1.36604
826.48929	1.35600
825.52489	1.34693
824.56050	1.33904
823.59610	1.33143
822.63170	1.32256
821.66730	1.31273
820.70290	1.30286
819.73850	1.29261
818.77411	1.28190
817.80971	1.27151
816.84531	1.26161
815.88091	1.25206
814.91651	1.24282
813.95211	1.23327
812.98772	1.22373
812.02332	1.21555
811.05892	1.20849
810.09452	1.20106
809.13012	1.19238
808.16573	1.18249
807.20133	1.17307
806.23693	1.16583
805.27253	1.15998
804.30813	1.15403
803.34373	1.14836
802.37934	1.14369
801.41494	1.13933
800.45054	1.13472
799.48614	1.13036
798.52174	1.12628
797.55734	1.12156
796.59295	1.11544
795.62855	1.10869
794.66415	1.10292
793.69975	1.09812
792.73535	1.09310
791.77096	1.08729
790.80656	1.08167
789.84216	1.07748
788.87776	1.07408
787.91336	1.07050
786.94896	1.06749
785.98457	1.06531
785.02017	1.06290
784.05577	1.05999
783.09137	1.05688
782.12697	1.05319
781.16257	1.04938
780.19818	1.04660
779.23378	1.04431
778.26938	1.04143
777.30498	1.03762
776.34058	1.03294
775.37619	1.02861
774.41179	1.02526
773.44739	1.02159
772.48299	1.01627
771.51859	1.00984
770.55419	1.00362
769.58980	0.99718
768.62540	0.98932
767.66100	0.98110
766.69660	0.97450
765.73220	0.96893
764.76780	0.96302
763.80341	0.95734
762.83901	0.95206
761.87461	0.94697
760.91021	0.94241
759.94581	0.93806
758.98142	0.93364
758.01702	0.92924
757.05262	0.92512
756.08822	0.92149
755.12382	0.91797
754.15942	0.91472
753.19503	0.91206
752.23063	0.90907
751.26623	0.90522
750.30183	0.90150
749.33743	0.89810
748.37303	0.89399
747.40864	0.88940
746.44424	0.88581
745.47984	0.88304
744.51544	0.87990
743.55104	0.87651
742.58664	0.87270
741.62225	0.86826
740.65785	0.86446
739.69345	0.86182
738.72905	0.85928
737.76465	0.85588
736.80026	0.85199
735.83586	0.84841
734.87146	0.84443
733.90706	0.83938
732.94266	0.83513
731.97826	0.83272
731.01387	0.82998
730.04947	0.82618
729.08507	0.82317
728.12067	0.82131
727.15627	0.81927
726.19187	0.81657
725.22748	0.81384
724.26308	0.81137
723.29868	0.80856
722.33428	0.80522
721.36988	0.80238
720.40549	0.80035
719.44109	0.79800
718.47669	0.79578
717.51229	0.79466
716.54789	0.79302
715.58349	0.78960
714.61910	0.78621
713.65470	0.78422
712.69030	0.78281
711.72590	0.78151
710.76150	0.78025
709.79710	0.77844
708.83271	0.77623
707.86831	0.77449
706.90391	0.77280
705.93951	0.77010
704.97511	0.76703
704.01072	0.76483
703.04632	0.76374
702.08192	0.76306
701.11752	0.76172
700.15312	0.75978
699.18872	0.75788
698.22433	0.75548
697.25993	0.75246
696.29553	0.75045
695.33113	0.75008
694.36673	0.74974
693.40233	0.74788
692.43794	0.74466
691.47354	0.74161
690.50914	0.73933
689.54474	0.73800
688.58034	0.73811
687.61595	0.73777
686.65155	0.73479
685.68715	0.73076
684.72275	0.72884
683.75835	0.72894
682.79395	0.72842
681.82956	0.72647
680.86516	0.72433
679.90076	0.72302
678.93636	0.72222
677.97196	0.72078
677.00756	0.71846
676.04317	0.71636
675.07877	0.71552
674.11437	0.71547
673.14997	0.71483
672.18557	0.71294
671.22118	0.70965
670.25678	0.70340
669.29238	0.69318
668.32798	0.69213
667.36358	0.70779
666.39918	0.70978
665.43479	0.70608
664.47039	0.70277
663.50599	0.70079
662.54159	0.70047
661.57719	0.70047
660.61279	0.69935
659.64840	0.69755
658.68400	0.69617
657.71960	0.69560
656.75520	0.69477
655.79080	0.69241
654.82641	0.68852
653.86201	0.68539
652.89761	0.68498
651.93321	0.68577
650.96881	0.68534
650.00441	0.68358
649.04002	0.68230
648.07562	0.68223
647.11122	0.68166
646.14682	0.67970
645.18242	0.67736
644.21802	0.67584
643.25363	0.67481
642.28923	0.67323
641.32483	0.67169
640.36043	0.67096
639.39603	0.67017
638.43163	0.66899
637.46724	0.66822
636.50284	0.66715
635.53844	0.66482
634.57404	0.66287
633.60964	0.66234
632.64525	0.66162
631.68085	0.65988
630.71645	0.65785
629.75205	0.65567
628.78765	0.65323
627.82325	0.65082
626.85886	0.64916
625.89446	0.64904
624.93006	0.64956
623.96566	0.64902
623.00126	0.64757
622.03686	0.64582
621.07247	0.64360
620.10807	0.64167
619.14367	0.64108
618.17927	0.64093
617.21487	0.63910
616.25048	0.63601
615.28608	0.63386
614.32168	0.63268
613.35728	0.63154
612.39288	0.63005
611.42848	0.62798
610.46409	0.62633
609.49969	0.62597
608.53529	0.62591
607.57089	0.62535
606.60649	0.62409
605.64209	0.62195
604.67770	0.62045
603.71330	0.62115
602.74890	0.62149
601.78450	0.61885
600.82010	0.61587
599.85571	0.61539
598.89131	0.61517
597.92691	0.61346
596.96251	0.61166
595.99811	0.60967
595.03371	0.60778
594.06932	0.60796
593.10492	0.60904
592.14052	0.60786
591.17612	0.60462
590.21172	0.60193
589.24732	0.59953
588.28293	0.59617
587.31853	0.59380
586.35413	0.59340
585.38973	0.59297
584.42533	0.59176
583.46094	0.58985
582.49654	0.58753
581.53214	0.58599
580.56774	0.58553
579.60334	0.58569
578.63894	0.58531
577.67455	0.58329
576.71015	0.58060
575.74575	0.57813
574.78135	0.57585
573.81695	0.57482
572.85255	0.57522
571.88816	0.57499
570.92376	0.57376
569.95936	0.57230
568.99496	0.56962
568.03056	0.56698
567.06617	0.56648
566.10177	0.56648
565.13737	0.56591
564.17297	0.56583
563.20857	0.56635
562.24417	0.56652
561.27978	0.56557
560.31538	0.56379
559.35098	0.56168
558.38658	0.55906
557.42218	0.55667
556.45778	0.55589
555.49339	0.55580
554.52899	0.55492
553.56459	0.55311
552.60019	0.55013
551.63579	0.54665
550.67140	0.54471
549.70700	0.54464
548.74260	0.54457
547.77820	0.54400
546.81380	0.54388
545.84940	0.54329
544.88501	0.54122
543.92061	0.53915
542.95621	0.53861
541.99181	0.53948
541.02741	0.54012
540.06301	0.53910
539.09862	0.53668
538.13422	0.53358
537.16982	0.53139
536.20542	0.53182
535.24102	0.53347
534.27663	0.53446
533.31223	0.53421
532.34783	0.53240
531.38343	0.52999
530.41903	0.52859
529.45463	0.52846
528.49024	0.52776
527.52584	0.52655
526.56144	0.52729
525.59704	0.52829
524.63264	0.52693
523.66824	0.52376
522.70385	0.51923
521.73945	0.51545
520.77505	0.51390
519.81065	0.51369
518.84625	0.51469
517.88185	0.51616
516.91746	0.51661
515.95306	0.51632
514.98866	0.51632
514.02426	0.51647
513.05986	0.51572
512.09547	0.51407
511.13107	0.51190
510.16667	0.50863
509.20227	0.50565
508.23787	0.50552
507.27347	0.50702
506.30908	0.50781
505.34468	0.50784
504.38028	0.50557
503.41588	0.50060
502.45148	0.49745
501.48708	0.49805
500.52269	0.49834
499.55829	0.49689
498.59389	0.49565
497.62949	0.49491
496.66509	0.49399
495.70070	0.49358
494.73630	0.49268
493.77190	0.48957
492.80750	0.48611
491.84310	0.48446
490.87870	0.48466
489.91431	0.48644
488.94991	0.48793
487.98551	0.48725
487.02111	0.48540
486.05671	0.48368
485.09231	0.48240
484.12792	0.48156
483.16352	0.48017
482.19912	0.47812
481.23472	0.47712
480.27032	0.47730
479.30593	0.47668
478.34153	0.47391
477.37713	0.47018
476.41273	0.46887
475.44833	0.47036
474.48393	0.47094
473.51954	0.46951
472.55514	0.46766
471.59074	0.46539
470.62634	0.46340
469.66194	0.46338
468.69754	0.46401
467.73315	0.46298
466.76875	0.46206
465.80435	0.46293
464.83995	0.46324
463.87555	0.46180
462.91116	0.45950
461.94676	0.45525
460.98236	0.44989
460.01796	0.44674
459.05356	0.44563
458.08916	0.44660
457.12477	0.44888
456.16037	0.44777
455.19597	0.44417
454.23157	0.44161
453.26717	0.44073
452.30277	0.43897
451.33838	0.43495
450.37398	0.43216
449.40958	0.43252
448.44518	0.43331
447.48078	0.43297
446.51639	0.43202
445.55199	0.43165
444.58759	0.43338
443.62319	0.43570
442.65879	0.43540
441.69439	0.43389
440.73000	0.43289
439.76560	0.43151
438.80120	0.43016
437.83680	0.42909
436.87240	0.42771
435.90800	0.42487
434.94361	0.41984
433.97921	0.41361
433.01481	0.40821
432.05041	0.40730
431.08601	0.41243
430.12162	0.41746
429.15722	0.41638
428.19282	0.41309
427.22842	0.41108
426.26402	0.40727
425.29962	0.40190
424.33523	0.39809
423.37083	0.39632
422.40643	0.39574
421.44203	0.39421
420.47763	0.39046
419.51323	0.38570
418.54884	0.38001
417.58444	0.37121
416.62004	0.36426
415.65564	0.36178
414.69124	0.36132
413.72685	0.31828
412.76245	0.27822
411.79805	0.23603
410.83365	0.18776
409.86925	0.13777
408.90485	0.09287
407.94046	0.05332
406.97606	0.01944
406.01166	0.00000
405.04726	0.01112
404.08286	0.07334
403.11846	0.19697
402.15407	0.35156
401.18967	0.46601
400.22527	0.47218
399.26087	0.36132
