3998.39510	0.00079
3997.43071	0.00092
3996.46631	0.00093
3995.50191	0.00100
3994.53751	0.00120
3993.57311	0.00164
3992.60871	0.00216
3991.64432	0.00232
3990.67992	0.00222
3989.71552	0.00232
3988.75112	0.00268
3987.78672	0.00293
3986.82232	0.00300
3985.85793	0.00321
3984.89353	0.00351
3983.92913	0.00369
3982.96473	0.00388
3982.00033	0.00414
3981.03594	0.00410
3980.07154	0.00373
3979.10714	0.00365
3978.14274	0.00406
3977.17834	0.00448
3976.21394	0.00470
3975.24955	0.00478
3974.28515	0.00493
3973.32075	0.00534
3972.35635	0.00588
3971.39195	0.00635
3970.42755	0.00653
3969.46316	0.00640
3968.49876	0.00637
3967.53436	0.00677
3966.56996	0.00736
3965.60556	0.00762
3964.64117	0.00741
3963.67677	0.00723
3962.71237	0.00773
3961.74797	0.00859
3960.78357	0.00898
3959.81917	0.00894
3958.85478	0.00898
3957.89038	0.00927
3956.92598	0.00983
3955.96158	0.01028
3954.99718	0.01008
3954.03278	0.00966
3953.06839	0.00979
3952.10399	0.01029
3951.13959	0.01069
3950.17519	0.01100
3949.21079	0.01124
3948.24640	0.01152
3947.28200	0.01201
3946.31760	0.01236
3945.35320	0.01225
3944.38880	0.01222
3943.42440	0.01280
3942.46001	0.01380
3941.49561	0.01443
3940.53121	0.01435
3939.56681	0.01389
3938.60241	0.01354
3937.63801	0.01395
3936.67362	0.01497
3935.70922	0.01559
3934.74482	0.01536
3933.78042	0.01505
3932.81602	0.01549
3931.85163	0.01619
3930.88723	0.01631
3929.92283	0.01630
3928.95843	0.01652
3927.99403	0.01675
3927.02963	0.01709
3926.06524	0.01770
3925.10084	0.01843
3924.13644	0.01891
3923.17204	0.01915
3922.20764	0.01921
3921.24324	0.01907
3920.27885	0.01890
3919.31445	0.01880
3918.35005	0.01893
3917.38565	0.01959
3916.42125	0.02037
3915.45686	0.02064
3914.49246	0.02062
3913.52806	0.02070
3912.56366	0.02104
3911.59926	0.02152
3910.63486	0.02182
3909.67047	0.02186
3908.70607	0.02190
3907.74167	0.02206
3906.77727	0.02234
3905.81287	0.02277
3904.84847	0.02329
3903.88408	0.02360
3902.91968	0.02389
3901.95528	0.02458
3900.99088	0.02515
3900.02648	0.02549
3899.06209	0.02570
3898.09769	0.02524
3897.13329	0.02462
3896.16889	0.02439
3895.20449	0.02446
3894.24009	0.02466
3893.27570	0.02486
3892.31130	0.02557
3891.34690	0.02700
3890.38250	0.02762
3889.41810	0.02700
3888.45370	0.02654
3887.48931	0.02678
3886.52491	0.02766
3885.56051	0.02881
3884.59611	0.02896
3883.63171	0.02823
3882.66731	0.02762
3881.70292	0.02774
3880.73852	0.02863
3879.77412	0.02911
3878.80972	0.02854
3877.84532	0.02818
3876.88093	0.02868
3875.91653	0.02934
3874.95213	0.02975
3873.98773	0.03004
3873.02333	0.02994
3872.05893	0.02959
3871.09454	0.03001
3870.13014	0.03158
3869.16574	0.03232
3868.20134	0.03136
3867.23694	0.03044
3866.27254	0.03078
3865.30815	0.03221
3864.34375	0.03288
3863.37935	0.03245
3862.41495	0.03273
3861.45055	0.03363
3860.48616	0.03371
3859.52176	0.03309
3858.55736	0.03279
3857.59296	0.03317
3856.62856	0.03361
3855.66416	0.03400
3854.69977	0.03584
3853.73537	0.03849
3852.77097	0.03882
3851.80657	0.03821
3850.84217	0.03771
3849.87777	0.03708
3848.91338	0.03666
3847.94898	0.03642
3846.98458	0.03652
3846.02018	0.03719
3845.05578	0.03797
3844.09139	0.03838
3843.12699	0.03835
3842.16259	0.03848
3841.19819	0.03956
3840.23379	0.04080
3839.26939	0.04097
3838.30500	0.04110
3837.34060	0.04194
3836.37620	0.04205
3835.41180	0.04162
3834.44740	0.04133
3833.48300	0.04095
3832.51861	0.04093
3831.55421	0.04164
3830.58981	0.04234
3829.62541	0.04262
3828.66101	0.04268
3827.69662	0.04285
3826.73222	0.04350
3825.76782	0.04427
3824.80342	0.04448
3823.83902	0.04416
3822.87462	0.04410
3821.91023	0.04552
3820.94583	0.04776
3819.98143	0.04837
3819.01703	0.04752
3818.05263	0.04641
3817.08823	0.04643
3816.12384	0.04860
3815.15944	0.05015
3814.19504	0.04924
3813.23064	0.04816
3812.26624	0.04841
3811.30185	0.04926
3810.33745	0.04962
3809.37305	0.04936
3808.40865	0.04911
3807.44425	0.04992
3806.47985	0.05151
3805.51546	0.05211
3804.55106	0.05184
3803.58666	0.05141
3802.62226	0.05148
3801.65786	0.05331
3800.69346	0.05547
3799.72907	0.05552
3798.76467	0.05446
3797.80027	0.05389
3796.83587	0.05455
3795.87147	0.05587
3794.90708	0.05652
3793.94268	0.05647
3792.97828	0.05637
3792.01388	0.05634
3791.04948	0.05651
3790.08508	0.05714
3789.12069	0.05774
3788.15629	0.05796
3787.19189	0.05824
3786.22749	0.05883
3785.26309	0.05962
3784.29869	0.06011
3783.33430	0.05993
3782.36990	0.05968
3781.40550	0.06022
3780.44110	0.06171
3779.47670	0.06332
3778.51230	0.06379
3777.54791	0.06328
3776.58351	0.06300
3775.61911	0.06357
3774.65471	0.06443
3773.69031	0.06484
3772.72592	0.06484
3771.76152	0.06486
3770.79712	0.06571
3769.83272	0.06735
3768.86832	0.06798
3767.90392	0.06751
3766.93953	0.06776
3765.97513	0.06926
3765.01073	0.07035
3764.04633	0.07018
3763.08193	0.06976
3762.11753	0.06974
3761.15314	0.07013
3760.18874	0.07116
3759.22434	0.07242
3758.25994	0.07296
3757.29554	0.07312
3756.33115	0.07354
3755.36675	0.07402
3754.40235	0.07424
3753.43795	0.07467
3752.47355	0.07624
3751.50915	0.07792
3750.54476	0.07887
3749.58036	0.08035
3748.61596	0.08091
3747.65156	0.07967
3746.68716	0.07817
3745.72276	0.07757
3744.75837	0.07993
3743.79397	0.08298
3742.82957	0.08263
3741.86517	0.08151
3740.90077	0.08166
3739.93638	0.08262
3738.97198	0.08336
3738.00758	0.08370
3737.04318	0.08439
3736.07878	0.08602
3735.11438	0.08772
3734.14999	0.08790
3733.18559	0.08696
3732.22119	0.08693
3731.25679	0.08786
3730.29239	0.08829
3729.32799	0.08844
3728.36360	0.08854
3727.39920	0.08870
3726.43480	0.08965
3725.47040	0.09114
3724.50600	0.09204
3723.54161	0.09216
3722.57721	0.09232
3721.61281	0.09283
3720.64841	0.09354
3719.68401	0.09465
3718.71961	0.09575
3717.75522	0.09620
3716.79082	0.09631
3715.82642	0.09684
3714.86202	0.09784
3713.89762	0.09871
3712.93322	0.09959
3711.96883	0.10078
3711.00443	0.10144
3710.04003	0.10192
3709.07563	0.10311
3708.11123	0.10391
3707.14684	0.10376
3706.18244	0.10374
3705.21804	0.10445
3704.25364	0.10534
3703.28924	0.10598
3702.32484	0.10700
3701.36045	0.10845
3700.39605	0.10943
3699.43165	0.10997
3698.46725	0.11036
3697.50285	0.11056
3696.53845	0.11088
3695.57406	0.11175
3694.60966	0.11316
3693.64526	0.11435
3692.68086	0.11494
3691.71646	0.11599
3690.75207	0.11768
3689.78767	0.11893
3688.82327	0.12053
3687.85887	0.12241
3686.89447	0.12253
3685.93007	0.12194
3684.96568	0.12250
3684.00128	0.12386
3683.03688	0.12489
3682.07248	0.12537
3681.10808	0.12598
3680.14368	0.12743
3679.17929	0.12922
3678.21489	0.13026
3677.25049	0.13076
3676.28609	0.13229
3675.32169	0.13571
3674.35730	0.13815
3673.39290	0.13795
3672.42850	0.13675
3671.46410	0.13688
3670.49970	0.13942
3669.53530	0.14236
3668.57091	0.14395
3667.60651	0.14423
3666.64211	0.14418
3665.67771	0.14481
3664.71331	0.14599
3663.74891	0.14710
3662.78452	0.14799
3661.82012	0.14896
3660.85572	0.15042
3659.89132	0.15235
3658.92692	0.15425
3657.96252	0.15568
3656.99813	0.15728
3656.03373	0.15956
3655.06933	0.16129
3654.10493	0.16217
3653.14053	0.16270
3652.17614	0.16327
3651.21174	0.16494
3650.24734	0.16796
3649.28294	0.17080
3648.31854	0.17251
3647.35414	0.17402
3646.38975	0.17560
3645.42535	0.17675
3644.46095	0.17804
3643.49655	0.17961
3642.53215	0.18072
3641.56775	0.18154
3640.60336	0.18290
3639.63896	0.18488
3638.67456	0.18717
3637.71016	0.18946
3636.74576	0.19112
3635.78137	0.19233
3634.81697	0.19428
3633.85257	0.19694
3632.88817	0.19893
3631.92377	0.20024
3630.95937	0.20205
3629.99498	0.20531
3629.03058	0.20999
3628.06618	0.21315
3627.10178	0.21380
3626.13738	0.21401
3625.17298	0.21524
3624.20859	0.21769
3623.24419	0.22064
3622.27979	0.22308
3621.31539	0.22485
3620.35099	0.22740
3619.38660	0.23117
3618.42220	0.23436
3617.45780	0.23639
3616.49340	0.23764
3615.52900	0.23880
3614.56460	0.24081
3613.60021	0.24365
3612.63581	0.24657
3611.67141	0.24855
3610.70701	0.25001
3609.74261	0.25297
3608.77821	0.25724
3607.81382	0.26046
3606.84942	0.26217
3605.88502	0.26325
3604.92062	0.26495
3603.95622	0.26775
3602.99183	0.27063
3602.02743	0.27275
3601.06303	0.27447
3600.09863	0.27667
3599.13423	0.27977
3598.16983	0.28317
3597.20544	0.28593
3596.24104	0.28854
3595.27664	0.29201
3594.31224	0.29544
3593.34784	0.29778
3592.38344	0.29941
3591.41905	0.30105
3590.45465	0.30271
3589.49025	0.30497
3588.52585	0.30896
3587.56145	0.31349
3586.59706	0.31633
3585.63266	0.31738
3584.66826	0.31868
3583.70386	0.32156
3582.73946	0.32455
3581.77506	0.32638
3580.81067	0.32793
3579.84627	0.33019
3578.88187	0.33318
3577.91747	0.33641
3576.95307	0.33933
3575.98867	0.34156
3575.02428	0.34356
3574.05988	0.34657
3573.09548	0.35059
3572.13108	0.35372
3571.16668	0.35512
3570.20229	0.35642
3569.23789	0.35946
3568.27349	0.36437
3567.30909	0.36911
3566.34469	0.37192
3565.38029	0.37312
3564.41590	0.37428
3563.45150	0.37702
3562.48710	0.38096
3561.52270	0.38388
3560.55830	0.38506
3559.59390	0.38700
3558.62951	0.39168
3557.66511	0.39649
3556.70071	0.39860
3555.73631	0.39957
3554.77191	0.40146
3553.80752	0.40417
3552.84312	0.40720
3551.87872	0.41017
3550.91432	0.41239
3549.94992	0.41409
3548.98552	0.41684
3548.02113	0.42149
3547.05673	0.42622
3546.09233	0.42871
3545.12793	0.42996
3544.16353	0.43232
3543.19913	0.43597
3542.23474	0.43980
3541.27034	0.44253
3540.30594	0.44394
3539.34154	0.44583
3538.37714	0.44935
3537.41274	0.45381
3536.44835	0.45765
3535.48395	0.45994
3534.51955	0.46185
3533.55515	0.46460
3532.59075	0.46798
3531.62636	0.47093
3530.66196	0.47280
3529.69756	0.47498
3528.73316	0.47836
3527.76876	0.48120
3526.80436	0.48238
3525.83997	0.48341
3524.87557	0.48599
3523.91117	0.49015
3522.94677	0.49475
3521.98237	0.49780
3521.01797	0.49833
3520.05358	0.49810
3519.08918	0.49857
3518.12478	0.49981
3517.16038	0.50208
3516.19598	0.50439
3515.23159	0.50553
3514.26719	0.50665
3513.30279	0.50919
3512.33839	0.51197
3511.37399	0.51226
3510.40959	0.51076
3509.44520	0.51180
3508.48080	0.51580
3507.51640	0.51916
3506.55200	0.52099
3505.58760	0.52257
3504.62320	0.52389
3503.65881	0.52510
3502.69441	0.52760
3501.73001	0.53138
3500.76561	0.53420
3499.80121	0.53576
3498.83682	0.53787
3497.87242	0.54038
3496.90802	0.54277
3495.94362	0.54546
3494.97922	0.54776
3494.01482	0.54972
3493.05043	0.55252
3492.08603	0.55633
3491.12163	0.56017
3490.15723	0.56307
3489.19283	0.56560
3488.22843	0.56919
3487.26404	0.57326
3486.29964	0.57567
3485.33524	0.57700
3484.37084	0.57978
3483.40644	0.58427
3482.44205	0.58845
3481.47765	0.59057
3480.51325	0.59098
3479.54885	0.59235
3478.58445	0.59766
3477.62005	0.60582
3476.65566	0.61186
3475.69126	0.61384
3474.72686	0.61389
3473.76246	0.61538
3472.79806	0.61973
3471.83366	0.62420
3470.86927	0.62642
3469.90487	0.62771
3468.94047	0.63010
3467.97607	0.63381
3467.01167	0.63792
3466.04728	0.64116
3465.08288	0.64358
3464.11848	0.64772
3463.15408	0.65462
3462.18968	0.66176
3461.22528	0.66537
3460.26089	0.66390
3459.29649	0.66183
3458.33209	0.66576
3457.36769	0.67519
3456.40329	0.68229
3455.43889	0.68314
3454.47450	0.68228
3453.51010	0.68444
3452.54570	0.68934
3451.58130	0.69299
3450.61690	0.69283
3449.65251	0.69187
3448.68811	0.69471
3447.72371	0.70115
3446.75931	0.70657
3445.79491	0.70832
3444.83051	0.70762
3443.86612	0.70682
3442.90172	0.70857
3441.93732	0.71251
3440.97292	0.71518
3440.00852	0.71625
3439.04412	0.71755
3438.07973	0.71886
3437.11533	0.72041
3436.15093	0.72222
3435.18653	0.72174
3434.22213	0.71925
3433.25774	0.71924
3432.29334	0.72261
3431.32894	0.72557
3430.36454	0.72619
3429.40014	0.72604
3428.43574	0.72667
3427.47135	0.72799
3426.50695	0.72868
3425.54255	0.72815
3424.57815	0.72785
3423.61375	0.72746
3422.64935	0.72664
3421.68496	0.72898
3420.72056	0.73374
3419.75616	0.73461
3418.79176	0.73185
3417.82736	0.73219
3416.86296	0.73634
3415.89857	0.73773
3414.93417	0.73428
3413.96977	0.73023
3413.00537	0.72797
3412.04097	0.72741
3411.07658	0.72931
3410.11218	0.73247
3409.14778	0.73247
3408.18338	0.72996
3407.21898	0.73040
3406.25458	0.73350
3405.29019	0.73490
3404.32579	0.73482
3403.36139	0.73591
3402.39699	0.73644
3401.43259	0.73338
3400.46819	0.72948
3399.50380	0.72872
3398.53940	0.72948
3397.57500	0.73021
3396.61060	0.73316
3395.64620	0.73758
3394.68181	0.73839
3393.71741	0.73392
3392.75301	0.72946
3391.78861	0.72903
3390.82421	0.72949
3389.85981	0.72729
3388.89542	0.72405
3387.93102	0.72276
3386.96662	0.72376
3386.00222	0.72531
3385.03782	0.72501
3384.07342	0.72277
3383.10903	0.72178
3382.14463	0.72261
3381.18023	0.72270
3380.21583	0.72064
3379.25143	0.71702
3378.28704	0.71471
3377.32264	0.71520
3376.35824	0.71665
3375.39384	0.71634
3374.42944	0.71194
3373.46504	0.70640
3372.50065	0.70609
3371.53625	0.70974
3370.57185	0.71097
3369.60745	0.70810
3368.64305	0.70384
3367.67865	0.70264
3366.71426	0.70584
3365.74986	0.70819
3364.78546	0.70576
3363.82106	0.70127
3362.85666	0.69848
3361.89227	0.69817
3360.92787	0.69940
3359.96347	0.69935
3358.99907	0.69529
3358.03467	0.69068
3357.07027	0.69066
3356.10588	0.69340
3355.14148	0.69460
3354.17708	0.69300
3353.21268	0.68887
3352.24828	0.68511
3351.28388	0.68552
3350.31949	0.68849
3349.35509	0.68946
3348.39069	0.68735
3347.42629	0.68453
3346.46189	0.68461
3345.49750	0.68724
3344.53310	0.68734
3343.56870	0.68502
3342.60430	0.68436
3341.63990	0.68427
3340.67550	0.68263
3339.71111	0.68046
3338.74671	0.67822
3337.78231	0.67652
3336.81791	0.67665
3335.85351	0.67797
3334.88911	0.67823
3333.92472	0.67700
3332.96032	0.67661
3331.99592	0.67834
3331.03152	0.68057
3330.06712	0.68096
3329.10273	0.67874
3328.13833	0.67629
3327.17393	0.67576
3326.20953	0.67700
3325.24513	0.67952
3324.28073	0.68122
3323.31634	0.68077
3322.35194	0.68120
3321.38754	0.68464
3320.42314	0.68878
3319.45874	0.68931
3318.49434	0.68549
3317.52995	0.68262
3316.56555	0.68375
3315.60115	0.68647
3314.63675	0.68867
3313.67235	0.68876
3312.70795	0.68741
3311.74356	0.68884
3310.77916	0.69271
3309.81476	0.69428
3308.85036	0.69243
3307.88596	0.68952
3306.92157	0.68867
3305.95717	0.69074
3304.99277	0.69208
3304.02837	0.69024
3303.06397	0.68838
3302.09957	0.68997
3301.13518	0.69420
3300.17078	0.69780
3299.20638	0.69884
3298.24198	0.69805
3297.27758	0.69841
3296.31318	0.70117
3295.34879	0.70309
3294.38439	0.70182
3293.41999	0.69820
3292.45559	0.69419
3291.49119	0.69296
3290.52680	0.69504
3289.56240	0.69647
3288.59800	0.69539
3287.63360	0.69513
3286.66920	0.69761
3285.70480	0.70067
3284.74041	0.70192
3283.77601	0.69971
3282.81161	0.69509
3281.84721	0.69244
3280.88281	0.69363
3279.91841	0.69579
3278.95402	0.69574
3277.98962	0.69386
3277.02522	0.69207
3276.06082	0.69184
3275.09642	0.69451
3274.13203	0.69775
3273.16763	0.69710
3272.20323	0.69314
3271.23883	0.68991
3270.27443	0.68940
3269.31003	0.69044
3268.34564	0.69071
3267.38124	0.68991
3266.41684	0.68985
3265.45244	0.69135
3264.48804	0.69294
3263.52364	0.69318
3262.55925	0.69294
3261.59485	0.69377
3260.63045	0.69531
3259.66605	0.69543
3258.70165	0.69263
3257.73726	0.68807
3256.77286	0.68500
3255.80846	0.68542
3254.84406	0.68722
3253.87966	0.68674
3252.91526	0.68406
3251.95087	0.68232
3250.98647	0.68260
3250.02207	0.68265
3249.05767	0.67972
3248.09327	0.67439
3247.12887	0.67148
3246.16448	0.67394
3245.20008	0.67812
3244.23568	0.67803
3243.27128	0.67269
3242.30688	0.66622
3241.34249	0.66247
3240.37809	0.66209
3239.41369	0.66343
3238.44929	0.66374
3237.48489	0.66102
3236.52049	0.65691
3235.55610	0.65401
3234.59170	0.65114
3233.62730	0.64670
3232.66290	0.64230
3231.69850	0.63936
3230.73410	0.63828
3229.76971	0.63818
3228.80531	0.63649
3227.84091	0.63371
3226.87651	0.63171
3225.91211	0.62883
3224.94772	0.62425
3223.98332	0.61982
3223.01892	0.61591
3222.05452	0.61168
3221.09012	0.60770
3220.12572	0.60545
3219.16133	0.60375
3218.19693	0.59986
3217.23253	0.59506
3216.26813	0.59206
3215.30373	0.58987
3214.33933	0.58686
3213.37494	0.58302
3212.41054	0.57838
3211.44614	0.57380
3210.48174	0.57093
3209.51734	0.56947
3208.55295	0.56692
3207.58855	0.56212
3206.62415	0.55668
3205.65975	0.55343
3204.69535	0.55241
3203.73095	0.55033
3202.76656	0.54646
3201.80216	0.54313
3200.83776	0.54067
3199.87336	0.53805
3198.90896	0.53470
3197.94456	0.53078
3196.98017	0.52753
3196.01577	0.52502
3195.05137	0.52202
3194.08697	0.51874
3193.12257	0.51550
3192.15817	0.51180
3191.19378	0.50832
3190.22938	0.50607
3189.26498	0.50460
3188.30058	0.50267
3187.33618	0.49988
3186.37179	0.49693
3185.40739	0.49457
3184.44299	0.49240
3183.47859	0.48921
3182.51419	0.48479
3181.54979	0.48103
3180.58540	0.47978
3179.62100	0.47998
3178.65660	0.47912
3177.69220	0.47647
3176.72780	0.47304
3175.76340	0.47039
3174.79901	0.46908
3173.83461	0.46806
3172.87021	0.46603
3171.90581	0.46300
3170.94141	0.46055
3169.97702	0.45948
3169.01262	0.45858
3168.04822	0.45673
3167.08382	0.45413
3166.11942	0.45157
3165.15502	0.44943
3164.19063	0.44763
3163.22623	0.44608
3162.26183	0.44455
3161.29743	0.44303
3160.33303	0.44199
3159.36863	0.44104
3158.40424	0.43946
3157.43984	0.43767
3156.47544	0.43585
3155.51104	0.43398
3154.54664	0.43251
3153.58225	0.43121
3152.61785	0.42964
3151.65345	0.42802
3150.68905	0.42647
3149.72465	0.42516
3148.76025	0.42415
3147.79586	0.42297
3146.83146	0.42134
3145.86706	0.41963
3144.90266	0.41821
3143.93826	0.41702
3142.97386	0.41605
3142.00947	0.41514
3141.04507	0.41376
3140.08067	0.41249
3139.11627	0.41225
3138.15187	0.41214
3137.18748	0.41125
3136.22308	0.40997
3135.25868	0.40883
3134.29428	0.40789
3133.32988	0.40674
3132.36548	0.40519
3131.40109	0.40372
3130.43669	0.40270
3129.47229	0.40217
3128.50789	0.40185
3127.54349	0.40094
3126.57909	0.39930
3125.61470	0.39788
3124.65030	0.39732
3123.68590	0.39712
3122.72150	0.39627
3121.75710	0.39440
3120.79271	0.39261
3119.82831	0.39198
3118.86391	0.39185
3117.89951	0.39119
3116.93511	0.39006
3115.97071	0.38927
3115.00632	0.38938
3114.04192	0.38941
3113.07752	0.38845
3112.11312	0.38714
3111.14872	0.38616
3110.18432	0.38567
3109.21993	0.38596
3108.25553	0.38645
3107.29113	0.38583
3106.32673	0.38387
3105.36233	0.38179
3104.39794	0.38096
3103.43354	0.38152
3102.46914	0.38181
3101.50474	0.38058
3100.54034	0.37885
3099.57594	0.37795
3098.61155	0.37782
3097.64715	0.37766
3096.68275	0.37705
3095.71835	0.37647
3094.75395	0.37643
3093.78955	0.37637
3092.82516	0.37544
3091.86076	0.37380
3090.89636	0.37230
3089.93196	0.37176
3088.96756	0.37212
3088.00317	0.37232
3087.03877	0.37175
3086.07437	0.37054
3085.10997	0.36925
3084.14557	0.36881
3083.18117	0.36917
3082.21678	0.36910
3081.25238	0.36812
3080.28798	0.36690
3079.32358	0.36617
3078.35918	0.36603
3077.39478	0.36583
3076.43039	0.36514
3075.46599	0.36439
3074.50159	0.36418
3073.53719	0.36476
3072.57279	0.36510
3071.60839	0.36408
3070.64400	0.36257
3069.67960	0.36181
3068.71520	0.36193
3067.75080	0.36229
3066.78640	0.36210
3065.82201	0.36121
3064.85761	0.36031
3063.89321	0.35987
3062.92881	0.35957
3061.96441	0.35877
3061.00001	0.35758
3060.03562	0.35689
3059.07122	0.35696
3058.10682	0.35724
3057.14242	0.35734
3056.17802	0.35713
3055.21362	0.35657
3054.24923	0.35619
3053.28483	0.35635
3052.32043	0.35608
3051.35603	0.35475
3050.39163	0.35353
3049.42724	0.35336
3048.46284	0.35368
3047.49844	0.35351
3046.53404	0.35266
3045.56964	0.35187
3044.60524	0.35185
3043.64085	0.35230
3042.67645	0.35230
3041.71205	0.35167
3040.74765	0.35105
3039.78325	0.35073
3038.81885	0.35044
3037.85446	0.35002
3036.89006	0.34921
3035.92566	0.34798
3034.96126	0.34722
3033.99686	0.34765
3033.03247	0.34856
3032.06807	0.34887
3031.10367	0.34833
3030.13927	0.34736
3029.17487	0.34672
3028.21047	0.34708
3027.24608	0.34802
3026.28168	0.34823
3025.31728	0.34740
3024.35288	0.34664
3023.38848	0.34648
3022.42408	0.34644
3021.45969	0.34608
3020.49529	0.34545
3019.53089	0.34507
3018.56649	0.34509
3017.60209	0.34514
3016.63770	0.34490
3015.67330	0.34402
3014.70890	0.34295
3013.74450	0.34289
3012.78010	0.34343
3011.81570	0.34312
3010.85131	0.34220
3009.88691	0.34165
3008.92251	0.34164
3007.95811	0.34209
3006.99371	0.34253
3006.02931	0.34226
3005.06492	0.34168
3004.10052	0.34167
3003.13612	0.34227
3002.17172	0.34235
3001.20732	0.34109
3000.24293	0.33941
2999.27853	0.33864
2998.31413	0.33877
2997.34973	0.33906
2996.38533	0.33923
2995.42093	0.33895
2994.45654	0.33854
2993.49214	0.33886
2992.52774	0.33956
2991.56334	0.33961
2990.59894	0.33895
2989.63454	0.33827
2988.67015	0.33809
2987.70575	0.33824
2986.74135	0.33816
2985.77695	0.33763
2984.81255	0.33711
2983.84816	0.33715
2982.88376	0.33773
2981.91936	0.33828
2980.95496	0.33813
2979.99056	0.33732
2979.02616	0.33686
2978.06177	0.33731
2977.09737	0.33787
2976.13297	0.33783
2975.16857	0.33735
2974.20417	0.33699
2973.23977	0.33733
2972.27538	0.33818
2971.31098	0.33871
2970.34658	0.33853
2969.38218	0.33799
2968.41778	0.33778
2967.45339	0.33817
2966.48899	0.33852
2965.52459	0.33804
2964.56019	0.33720
2963.59579	0.33709
2962.63139	0.33778
2961.66700	0.33853
2960.70260	0.33908
2959.73820	0.33936
2958.77380	0.33924
2957.80940	0.33902
2956.84500	0.33876
2955.88061	0.33814
2954.91621	0.33734
2953.95181	0.33658
2952.98741	0.33633
2952.02301	0.33698
2951.05861	0.33751
2950.09422	0.33693
2949.12982	0.33594
2948.16542	0.33557
2947.20102	0.33606
2946.23662	0.33669
2945.27223	0.33668
2944.30783	0.33626
2943.34343	0.33614
2942.37903	0.33612
2941.41463	0.33571
2940.45023	0.33531
2939.48584	0.33543
2938.52144	0.33590
2937.55704	0.33663
2936.59264	0.33730
2935.62824	0.33707
2934.66384	0.33635
2933.69945	0.33630
2932.73505	0.33673
2931.77065	0.33700
2930.80625	0.33702
2929.84185	0.33701
2928.87746	0.33725
2927.91306	0.33776
2926.94866	0.33824
2925.98426	0.33821
2925.01986	0.33801
2924.05546	0.33823
2923.09107	0.33841
2922.12667	0.33834
2921.16227	0.33826
2920.19787	0.33795
2919.23347	0.33769
2918.26907	0.33799
2917.30468	0.33840
2916.34028	0.33821
2915.37588	0.33721
2914.41148	0.33600
2913.44708	0.33586
2912.48269	0.33703
2911.51829	0.33812
2910.55389	0.33809
2909.58949	0.33744
2908.62509	0.33719
2907.66069	0.33764
2906.69630	0.33807
2905.73190	0.33786
2904.76750	0.33729
2903.80310	0.33682
2902.83870	0.33682
2901.87430	0.33746
2900.90991	0.33812
2899.94551	0.33812
2898.98111	0.33783
2898.01671	0.33792
2897.05231	0.33833
2896.08792	0.33831
2895.12352	0.33758
2894.15912	0.33696
2893.19472	0.33696
2892.23032	0.33729
2891.26592	0.33778
2890.30153	0.33806
2889.33713	0.33781
2888.37273	0.33787
2887.40833	0.33876
2886.44393	0.33970
2885.47953	0.34013
2884.51514	0.34002
2883.55074	0.33957
2882.58634	0.33931
2881.62194	0.33917
2880.65754	0.33875
2879.69315	0.33842
2878.72875	0.33846
2877.76435	0.33886
2876.79995	0.33979
2875.83555	0.34090
2874.87115	0.34141
2873.90676	0.34097
2872.94236	0.34013
2871.97796	0.33972
2871.01356	0.34001
2870.04916	0.34054
2869.08476	0.34063
2868.12037	0.34049
2867.15597	0.34075
2866.19157	0.34113
2865.22717	0.34130
2864.26277	0.34131
2863.29838	0.34111
2862.33398	0.34106
2861.36958	0.34172
2860.40518	0.34250
2859.44078	0.34246
2858.47638	0.34192
2857.51199	0.34183
2856.54759	0.34255
2855.58319	0.34340
2854.61879	0.34345
2853.65439	0.34279
2852.68999	0.34256
2851.72560	0.34307
2850.76120	0.34334
2849.79680	0.34303
2848.83240	0.34250
2847.86800	0.34189
2846.90360	0.34171
2845.93921	0.34227
2844.97481	0.34281
2844.01041	0.34239
2843.04601	0.34148
2842.08161	0.34155
2841.11722	0.34250
2840.15282	0.34279
2839.18842	0.34206
2838.22402	0.34151
2837.25962	0.34184
2836.29522	0.34235
2835.33083	0.34223
2834.36643	0.34157
2833.40203	0.34072
2832.43763	0.34032
2831.47323	0.34105
2830.50883	0.34211
2829.54444	0.34239
2828.58004	0.34216
2827.61564	0.34198
2826.65124	0.34225
2825.68684	0.34277
2824.72245	0.34252
2823.75805	0.34119
2822.79365	0.34002
2821.82925	0.34005
2820.86485	0.34077
2819.90045	0.34116
2818.93606	0.34092
2817.97166	0.34040
2817.00726	0.34023
2816.04286	0.34071
2815.07846	0.34127
2814.11406	0.34135
2813.14967	0.34086
2812.18527	0.34003
2811.22087	0.33959
2810.25647	0.33983
2809.29207	0.33986
2808.32768	0.33920
2807.36328	0.33872
2806.39888	0.33907
2805.43448	0.33965
2804.47008	0.33954
2803.50568	0.33901
2802.54129	0.33877
2801.57689	0.33885
2800.61249	0.33903
2799.64809	0.33884
2798.68369	0.33796
2797.71929	0.33697
2796.75490	0.33664
2795.79050	0.33685
2794.82610	0.33679
2793.86170	0.33621
2792.89730	0.33584
2791.93291	0.33622
2790.96851	0.33679
2790.00411	0.33702
2789.03971	0.33691
2788.07531	0.33624
2787.11091	0.33498
2786.14652	0.33401
2785.18212	0.33387
2784.21772	0.33390
2783.25332	0.33351
2782.28892	0.33304
2781.32452	0.33287
2780.36013	0.33281
2779.39573	0.33255
2778.43133	0.33199
2777.46693	0.33135
2776.50253	0.33121
2775.53814	0.33163
2774.57374	0.33176
2773.60934	0.33092
2772.64494	0.32977
2771.68054	0.32921
2770.71614	0.32893
2769.75175	0.32862
2768.78735	0.32830
2767.82295	0.32749
2766.85855	0.32631
2765.89415	0.32566
2764.92975	0.32576
2763.96536	0.32579
2763.00096	0.32499
2762.03656	0.32370
2761.07216	0.32295
2760.10776	0.32266
2759.14337	0.32204
2758.17897	0.32099
2757.21457	0.31997
2756.25017	0.31950
2755.28577	0.31969
2754.32137	0.31972
2753.35698	0.31885
2752.39258	0.31762
2751.42818	0.31680
2750.46378	0.31625
2749.49938	0.31547
2748.53498	0.31439
2747.57059	0.31344
2746.60619	0.31288
2745.64179	0.31249
2744.67739	0.31192
2743.71299	0.31088
2742.74860	0.30942
2741.78420	0.30820
2740.81980	0.30764
2739.85540	0.30727
2738.89100	0.30625
2737.92660	0.30461
2736.96221	0.30334
2735.99781	0.30266
2735.03341	0.30198
2734.06901	0.30105
2733.10461	0.29996
2732.14021	0.29898
2731.17582	0.29831
2730.21142	0.29773
2729.24702	0.29678
2728.28262	0.29530
2727.31822	0.29380
2726.35382	0.29293
2725.38943	0.29252
2724.42503	0.29170
2723.46063	0.29002
2722.49623	0.28835
2721.53183	0.28760
2720.56744	0.28717
2719.60304	0.28627
2718.63864	0.28524
2717.67424	0.28440
2716.70984	0.28346
2715.74544	0.28236
2714.78105	0.28136
2713.81665	0.28038
2712.85225	0.27914
2711.88785	0.27774
2710.92345	0.27674
2709.95905	0.27627
2708.99466	0.27566
2708.03026	0.27423
2707.06586	0.27249
2706.10146	0.27139
2705.13706	0.27063
2704.17267	0.26947
2703.20827	0.26792
2702.24387	0.26641
2701.27947	0.26530
2700.31507	0.26451
2699.35067	0.26386
2698.38628	0.26328
2697.42188	0.26243
2696.45748	0.26113
2695.49308	0.25982
2694.52868	0.25880
2693.56428	0.25780
2692.59989	0.25654
2691.63549	0.25527
2690.67109	0.25447
2689.70669	0.25405
2688.74229	0.25342
2687.77790	0.25212
2686.81350	0.25043
2685.84910	0.24901
2684.88470	0.24826
2683.92030	0.24778
2682.95590	0.24689
2681.99151	0.24566
2681.02711	0.24459
2680.06271	0.24385
2679.09831	0.24323
2678.13391	0.24242
2677.16951	0.24144
2676.20512	0.24054
2675.24072	0.23970
2674.27632	0.23871
2673.31192	0.23757
2672.34752	0.23639
2671.38313	0.23540
2670.41873	0.23485
2669.45433	0.23458
2668.48993	0.23398
2667.52553	0.23273
2666.56113	0.23140
2665.59674	0.23057
2664.63234	0.23005
2663.66794	0.22950
2662.70354	0.22883
2661.73914	0.22810
2660.77474	0.22756
2659.81035	0.22732
2658.84595	0.22699
2657.88155	0.22612
2656.91715	0.22491
2655.95275	0.22408
2654.98836	0.22385
2654.02396	0.22368
2653.05956	0.22301
2652.09516	0.22184
2651.13076	0.22075
2650.16636	0.22034
2649.20197	0.22042
2648.23757	0.22033
2647.27317	0.21978
2646.30877	0.21906
2645.34437	0.21861
2644.37997	0.21853
2643.41558	0.21839
2642.45118	0.21798
2641.48678	0.21766
2640.52238	0.21755
2639.55798	0.21755
2638.59359	0.21771
2637.62919	0.21782
2636.66479	0.21740
2635.70039	0.21673
2634.73599	0.21652
2633.77159	0.21675
2632.80720	0.21683
2631.84280	0.21652
2630.87840	0.21626
2629.91400	0.21638
2628.94960	0.21660
2627.98520	0.21648
2627.02081	0.21610
2626.05641	0.21585
2625.09201	0.21589
2624.12761	0.21633
2623.16321	0.21687
2622.19882	0.21688
2621.23442	0.21657
2620.27002	0.21665
2619.30562	0.21714
2618.34122	0.21762
2617.37682	0.21785
2616.41243	0.21782
2615.44803	0.21773
2614.48363	0.21785
2613.51923	0.21824
2612.55483	0.21863
2611.59043	0.21868
2610.62604	0.21858
2609.66164	0.21888
2608.69724	0.21961
2607.73284	0.22029
2606.76844	0.22058
2605.80404	0.22074
2604.83965	0.22118
2603.87525	0.22196
2602.91085	0.22266
2601.94645	0.22287
2600.98205	0.22289
2600.01766	0.22342
2599.05326	0.22445
2598.08886	0.22543
2597.12446	0.22593
2596.16006	0.22618
2595.19566	0.22674
2594.23127	0.22777
2593.26687	0.22883
2592.30247	0.22950
2591.33807	0.22992
2590.37367	0.23058
2589.40927	0.23172
2588.44488	0.23309
2587.48048	0.23414
2586.51608	0.23484
2585.55168	0.23555
2584.58728	0.23635
2583.62289	0.23742
2582.65849	0.23893
2581.69409	0.24023
2580.72969	0.24078
2579.76529	0.24126
2578.80089	0.24230
2577.83650	0.24347
2576.87210	0.24433
2575.90770	0.24518
2574.94330	0.24632
2573.97890	0.24771
2573.01450	0.24913
2572.05011	0.25024
2571.08571	0.25102
2570.12131	0.25191
2569.15691	0.25320
2568.19251	0.25471
2567.22812	0.25614
2566.26372	0.25736
2565.29932	0.25841
2564.33492	0.25972
2563.37052	0.26146
2562.40612	0.26304
2561.44173	0.26420
2560.47733	0.26528
2559.51293	0.26657
2558.54853	0.26824
2557.58413	0.26986
2556.61973	0.27092
2555.65534	0.27178
2554.69094	0.27309
2553.72654	0.27475
2552.76214	0.27627
2551.79774	0.27746
2550.83335	0.27851
2549.86895	0.27972
2548.90455	0.28128
2547.94015	0.28287
2546.97575	0.28402
2546.01135	0.28497
2545.04696	0.28615
2544.08256	0.28757
2543.11816	0.28910
2542.15376	0.29051
2541.18936	0.29154
2540.22496	0.29233
2539.26057	0.29359
2538.29617	0.29565
2537.33177	0.29765
2536.36737	0.29872
2535.40297	0.29930
2534.43858	0.30045
2533.47418	0.30241
2532.50978	0.30417
2531.54538	0.30488
2530.58098	0.30509
2529.61658	0.30614
2528.65219	0.30841
2527.68779	0.31087
2526.72339	0.31271
2525.75899	0.31402
2524.79459	0.31491
2523.83019	0.31574
2522.86580	0.31697
2521.90140	0.31829
2520.93700	0.31937
2519.97260	0.32057
2519.00820	0.32243
2518.04381	0.32475
2517.07941	0.32661
2516.11501	0.32782
2515.15061	0.32907
2514.18621	0.33073
2513.22181	0.33256
2512.25742	0.33406
2511.29302	0.33521
2510.32862	0.33663
2509.36422	0.33868
2508.39982	0.34108
2507.43542	0.34339
2506.47103	0.34512
2505.50663	0.34618
2504.54223	0.34731
2503.57783	0.34915
2502.61343	0.35150
2501.64904	0.35372
2500.68464	0.35538
2499.72024	0.35656
2498.75584	0.35777
2497.79144	0.35944
2496.82704	0.36149
2495.86265	0.36335
2494.89825	0.36498
2493.93385	0.36694
2492.96945	0.36924
2492.00505	0.37120
2491.04065	0.37269
2490.07626	0.37413
2489.11186	0.37586
2488.14746	0.37803
2487.18306	0.38028
2486.21866	0.38207
2485.25426	0.38351
2484.28987	0.38501
2483.32547	0.38680
2482.36107	0.38866
2481.39667	0.39020
2480.43227	0.39133
2479.46788	0.39235
2478.50348	0.39402
2477.53908	0.39629
2476.57468	0.39796
2475.61028	0.39880
2474.64588	0.39969
2473.68149	0.40118
2472.71709	0.40305
2471.75269	0.40451
2470.78829	0.40551
2469.82389	0.40659
2468.85949	0.40779
2467.89510	0.40926
2466.93070	0.41113
2465.96630	0.41269
2465.00190	0.41348
2464.03750	0.41425
2463.07311	0.41575
2462.10871	0.41748
2461.14431	0.41845
2460.17991	0.41888
2459.21551	0.41996
2458.25111	0.42205
2457.28672	0.42425
2456.32232	0.42569
2455.35792	0.42658
2454.39352	0.42785
2453.42912	0.43012
2452.46472	0.43278
2451.50033	0.43456
2450.53593	0.43517
2449.57153	0.43576
2448.60713	0.43731
2447.64273	0.43958
2446.67834	0.44188
2445.71394	0.44370
2444.74954	0.44507
2443.78514	0.44674
2442.82074	0.44888
2441.85634	0.45102
2440.89195	0.45293
2439.92755	0.45446
2438.96315	0.45584
2437.99875	0.45787
2437.03435	0.46057
2436.06995	0.46287
2435.10556	0.46453
2434.14116	0.46647
2433.17676	0.46908
2432.21236	0.47188
2431.24796	0.47424
2430.28357	0.47589
2429.31917	0.47749
2428.35477	0.47991
2427.39037	0.48301
2426.42597	0.48579
2425.46157	0.48768
2424.49718	0.48929
2423.53278	0.49203
2422.56838	0.49620
2421.60398	0.49980
2420.63958	0.50136
2419.67518	0.50250
2418.71079	0.50475
2417.74639	0.50787
2416.78199	0.51127
2415.81759	0.51417
2414.85319	0.51646
2413.88880	0.51843
2412.92440	0.52040
2411.96000	0.52353
2410.99560	0.52768
2410.03120	0.53107
2409.06680	0.53366
2408.10241	0.53690
2407.13801	0.54093
2406.17361	0.54510
2405.20921	0.54890
2404.24481	0.55208
2403.28041	0.55545
2402.31602	0.55990
2401.35162	0.56516
2400.38722	0.57038
2399.42282	0.57502
2398.45842	0.57908
2397.49403	0.58359
2396.52963	0.58983
2395.56523	0.59674
2394.60083	0.60261
2393.63643	0.60847
2392.67203	0.61518
2391.70764	0.62123
2390.74324	0.62572
2389.77884	0.62980
2388.81444	0.63483
2387.85004	0.64118
2386.88564	0.64797
2385.92125	0.65336
2384.95685	0.65633
2383.99245	0.65773
2383.02805	0.65945
2382.06365	0.66192
2381.09925	0.66310
2380.13486	0.66201
2379.17046	0.66055
2378.20606	0.65978
2377.24166	0.65887
2376.27726	0.65785
2375.31287	0.65608
2374.34847	0.65266
2373.38407	0.65049
2372.41967	0.65255
2371.45527	0.65741
2370.49087	0.66171
2369.52648	0.66256
2368.56208	0.66168
2367.59768	0.66528
2366.63328	0.67347
2365.66888	0.68067
2364.70448	0.68633
2363.74009	0.69451
2362.77569	0.70937
2361.81129	0.73002
2360.84689	0.74909
2359.88249	0.76369
2358.91810	0.77828
2357.95370	0.79747
2356.98930	0.82264
2356.02490	0.84753
2355.06050	0.85989
2354.09610	0.86020
2353.13171	0.86382
2352.16731	0.87369
2351.20291	0.87621
2350.23851	0.86428
2349.27411	0.84522
2348.30971	0.82646
2347.34532	0.81108
2346.38092	0.79878
2345.41652	0.78310
2344.45212	0.76002
2343.48772	0.73581
2342.52333	0.71875
2341.55893	0.71165
2340.59453	0.70943
2339.63013	0.70559
2338.66573	0.70164
2337.70133	0.70304
2336.73694	0.71043
2335.77254	0.71923
2334.80814	0.72693
2333.84374	0.73626
2332.87934	0.75032
2331.91494	0.76890
2330.95055	0.78820
2329.98615	0.80432
2329.02175	0.81737
2328.05735	0.83265
2327.09295	0.85564
2326.12856	0.88475
2325.16416	0.91230
2324.19976	0.93220
2323.23536	0.94761
2322.27096	0.96625
2321.30656	0.98622
2320.34217	0.99487
2319.37777	0.98601
2318.41337	0.96916
2317.44897	0.95455
2316.48457	0.94232
2315.52017	0.92838
2314.55578	0.91091
2313.59138	0.89016
2312.62698	0.86936
2311.66258	0.85185
2310.69818	0.83725
2309.73379	0.82162
2308.76939	0.80112
2307.80499	0.77903
2306.84059	0.76181
2305.87619	0.74953
2304.91179	0.73723
2303.94740	0.72395
2302.98300	0.71338
2302.01860	0.70621
2301.05420	0.69955
2300.08980	0.69163
2299.12540	0.68228
2298.16101	0.67303
2297.19661	0.66666
2296.23221	0.66247
2295.26781	0.65662
2294.30341	0.64833
2293.33902	0.63950
2292.37462	0.63111
2291.41022	0.62385
2290.44582	0.61809
2289.48142	0.61288
2288.51702	0.60815
2287.55263	0.60551
2286.58823	0.60656
2285.62383	0.61169
2284.65943	0.61919
2283.69503	0.62671
2282.73063	0.63354
2281.76624	0.63991
2280.80184	0.64421
2279.83744	0.64275
2278.87304	0.63293
2277.90864	0.61637
2276.94425	0.59739
2275.97985	0.57792
2275.01545	0.55691
2274.05105	0.53453
2273.08665	0.51287
2272.12225	0.49339
2271.15786	0.47614
2270.19346	0.46034
2269.22906	0.44461
2268.26466	0.42848
2267.30026	0.41312
2266.33586	0.39955
2265.37147	0.38722
2264.40707	0.37496
2263.44267	0.36289
2262.47827	0.35188
2261.51387	0.34201
2260.54947	0.33307
2259.58508	0.32474
2258.62068	0.31634
2257.65628	0.30784
2256.69188	0.30018
2255.72748	0.29382
2254.76309	0.28805
2253.79869	0.28212
2252.83429	0.27612
2251.86989	0.27081
2250.90549	0.26646
2249.94109	0.26260
2248.97670	0.25863
2248.01230	0.25434
2247.04790	0.25004
2246.08350	0.24616
2245.11910	0.24258
2244.15470	0.23881
2243.19031	0.23486
2242.22591	0.23114
2241.26151	0.22785
2240.29711	0.22476
2239.33271	0.22138
2238.36832	0.21767
2237.40392	0.21411
2236.43952	0.21108
2235.47512	0.20861
2234.51072	0.20618
2233.54632	0.20344
2232.58193	0.20072
2231.61753	0.19855
2230.65313	0.19706
2229.68873	0.19575
2228.72433	0.19408
2227.75993	0.19219
2226.79554	0.19063
2225.83114	0.18960
2224.86674	0.18868
2223.90234	0.18722
2222.93794	0.18533
2221.97355	0.18358
2221.00915	0.18209
2220.04475	0.18048
2219.08035	0.17848
2218.11595	0.17627
2217.15155	0.17423
2216.18716	0.17262
2215.22276	0.17148
2214.25836	0.17044
2213.29396	0.16904
2212.32956	0.16735
2211.36516	0.16586
2210.40077	0.16478
2209.43637	0.16386
2208.47197	0.16266
2207.50757	0.16131
2206.54317	0.16031
2205.57878	0.15976
2204.61438	0.15937
2203.64998	0.15905
2202.68558	0.15875
2201.72118	0.15847
2200.75678	0.15848
2199.79239	0.15891
2198.82799	0.15929
2197.86359	0.15947
2196.89919	0.16000
2195.93479	0.16107
2194.97039	0.16231
2194.00600	0.16354
2193.04160	0.16502
2192.07720	0.16695
2191.11280	0.16926
2190.14840	0.17176
2189.18401	0.17390
2188.21961	0.17475
2187.25521	0.17390
2186.29081	0.17194
2185.32641	0.16993
2184.36201	0.16863
2183.39762	0.16793
2182.43322	0.16736
2181.46882	0.16663
2180.50442	0.16554
2179.54002	0.16385
2178.57562	0.16159
2177.61123	0.15905
2176.64683	0.15651
2175.68243	0.15415
2174.71803	0.15212
2173.75363	0.15026
2172.78924	0.14844
2171.82484	0.14682
2170.86044	0.14566
2169.89604	0.14483
2168.93164	0.14390
2167.96724	0.14270
2167.00285	0.14155
2166.03845	0.14066
2165.07405	0.14004
2164.10965	0.13960
2163.14525	0.13909
2162.18085	0.13832
2161.21646	0.13754
2160.25206	0.13696
2159.28766	0.13643
2158.32326	0.13555
2157.35886	0.13442
2156.39447	0.13358
2155.43007	0.13328
2154.46567	0.13321
2153.50127	0.13292
2152.53687	0.13229
2151.57247	0.13160
2150.60808	0.13118
2149.64368	0.13096
2148.67928	0.13061
2147.71488	0.12993
2146.75048	0.12912
2145.78608	0.12865
2144.82169	0.12876
2143.85729	0.12907
2142.89289	0.12911
2141.92849	0.12872
2140.96409	0.12820
2139.99969	0.12802
2139.03530	0.12822
2138.07090	0.12846
2137.10650	0.12856
2136.14210	0.12856
2135.17770	0.12858
2134.21331	0.12862
2133.24891	0.12850
2132.28451	0.12812
2131.32011	0.12767
2130.35571	0.12749
2129.39131	0.12759
2128.42692	0.12749
2127.46252	0.12687
2126.49812	0.12599
2125.53372	0.12535
2124.56932	0.12504
2123.60492	0.12467
2122.64053	0.12402
2121.67613	0.12328
2120.71173	0.12265
2119.74733	0.12210
2118.78293	0.12145
2117.81854	0.12052
2116.85414	0.11938
2115.88974	0.11825
2114.92534	0.11720
2113.96094	0.11612
2112.99654	0.11482
2112.03215	0.11319
2111.06775	0.11148
2110.10335	0.10997
2109.13895	0.10865
2108.17455	0.10733
2107.21015	0.10592
2106.24576	0.10448
2105.28136	0.10313
2104.31696	0.10200
2103.35256	0.10092
2102.38816	0.09964
2101.42377	0.09827
2100.45937	0.09728
2099.49497	0.09680
2098.53057	0.09648
2097.56617	0.09587
2096.60177	0.09504
2095.63738	0.09436
2094.67298	0.09405
2093.70858	0.09386
2092.74418	0.09320
2091.77978	0.09197
2090.81538	0.09060
2089.85099	0.08947
2088.88659	0.08855
2087.92219	0.08748
2086.95779	0.08605
2085.99339	0.08447
2085.02900	0.08317
2084.06460	0.08232
2083.10020	0.08165
2082.13580	0.08086
2081.17140	0.07994
2080.20700	0.07907
2079.24261	0.07834
2078.27821	0.07768
2077.31381	0.07695
2076.34941	0.07615
2075.38501	0.07550
2074.42061	0.07510
2073.45622	0.07476
2072.49182	0.07418
2071.52742	0.07343
2070.56302	0.07288
2069.59862	0.07271
2068.63423	0.07264
2067.66983	0.07229
2066.70543	0.07170
2065.74103	0.07113
2064.77663	0.07073
2063.81223	0.07046
2062.84784	0.07017
2061.88344	0.06969
2060.91904	0.06911
2059.95464	0.06866
2058.99024	0.06852
2058.02584	0.06863
2057.06145	0.06852
2056.09705	0.06804
2055.13265	0.06761
2054.16825	0.06749
2053.20385	0.06753
2052.23946	0.06749
2051.27506	0.06726
2050.31066	0.06696
2049.34626	0.06678
2048.38186	0.06682
2047.41746	0.06702
2046.45307	0.06708
2045.48867	0.06692
2044.52427	0.06688
2043.55987	0.06698
2042.59547	0.06697
2041.63107	0.06679
2040.66668	0.06663
2039.70228	0.06676
2038.73788	0.06708
2037.77348	0.06737
2036.80908	0.06762
2035.84469	0.06797
2034.88029	0.06865
2033.91589	0.06972
2032.95149	0.07088
2031.98709	0.07176
2031.02269	0.07250
2030.05830	0.07348
2029.09390	0.07469
2028.12950	0.07577
2027.16510	0.07642
2026.20070	0.07651
2025.23630	0.07612
2024.27191	0.07552
2023.30751	0.07495
2022.34311	0.07429
2021.37871	0.07332
2020.41431	0.07219
2019.44991	0.07133
2018.48552	0.07106
2017.52112	0.07125
2016.55672	0.07136
2015.59232	0.07107
2014.62792	0.07064
2013.66353	0.07030
2012.69913	0.06978
2011.73473	0.06906
2010.77033	0.06848
2009.80593	0.06814
2008.84153	0.06797
2007.87714	0.06793
2006.91274	0.06782
2005.94834	0.06751
2004.98394	0.06730
2004.01954	0.06760
2003.05514	0.06826
2002.09075	0.06880
2001.12635	0.06908
2000.16195	0.06938
1999.19755	0.07001
1998.23315	0.07091
1997.26876	0.07184
1996.30436	0.07247
1995.33996	0.07287
1994.37556	0.07343
1993.41116	0.07436
1992.44676	0.07559
1991.48237	0.07665
1990.51797	0.07727
1989.55357	0.07791
1988.58917	0.07900
1987.62477	0.08019
1986.66037	0.08120
1985.69598	0.08220
1984.73158	0.08330
1983.76718	0.08449
1982.80278	0.08582
1981.83838	0.08717
1980.87399	0.08846
1979.90959	0.08981
1978.94519	0.09146
1977.98079	0.09336
1977.01639	0.09515
1976.05199	0.09661
1975.08760	0.09789
1974.12320	0.09927
1973.15880	0.10070
1972.19440	0.10170
1971.23000	0.10169
1970.26560	0.10055
1969.30121	0.09868
1968.33681	0.09653
1967.37241	0.09415
1966.40801	0.09150
1965.44361	0.08885
1964.47922	0.08651
1963.51482	0.08472
1962.55042	0.08356
1961.58602	0.08279
1960.62162	0.08189
1959.65722	0.08070
1958.69283	0.07948
1957.72843	0.07827
1956.76403	0.07683
1955.79963	0.07512
1954.83523	0.07345
1953.87083	0.07212
1952.90644	0.07120
1951.94204	0.07050
1950.97764	0.06983
1950.01324	0.06914
1949.04884	0.06867
1948.08445	0.06853
1947.12005	0.06853
1946.15565	0.06840
1945.19125	0.06819
1944.22685	0.06812
1943.26245	0.06840
1942.29806	0.06891
1941.33366	0.06912
1940.36926	0.06899
1939.40486	0.06896
1938.44046	0.06917
1937.47606	0.06950
1936.51167	0.06982
1935.54727	0.07004
1934.58287	0.07029
1933.61847	0.07077
1932.65407	0.07138
1931.68968	0.07179
1930.72528	0.07193
1929.76088	0.07215
1928.79648	0.07273
1927.83208	0.07346
1926.86768	0.07402
1925.90329	0.07428
1924.93889	0.07449
1923.97449	0.07502
1923.01009	0.07598
1922.04569	0.07685
1921.08129	0.07726
1920.11690	0.07731
1919.15250	0.07749
1918.18810	0.07838
1917.22370	0.07946
1916.25930	0.07992
1915.29490	0.08009
1914.33051	0.08053
1913.36611	0.08132
1912.40171	0.08227
1911.43731	0.08304
1910.47291	0.08356
1909.50852	0.08404
1908.54412	0.08469
1907.57972	0.08554
1906.61532	0.08649
1905.65092	0.08731
1904.68652	0.08791
1903.72213	0.08849
1902.75773	0.08921
1901.79333	0.08994
1900.82893	0.09057
1899.86453	0.09116
1898.90013	0.09181
1897.93574	0.09265
1896.97134	0.09358
1896.00694	0.09439
1895.04254	0.09510
1894.07814	0.09580
1893.11375	0.09660
1892.14935	0.09759
1891.18495	0.09857
1890.22055	0.09937
1889.25615	0.10015
1888.29175	0.10094
1887.32736	0.10177
1886.36296	0.10254
1885.39856	0.10300
1884.43416	0.10340
1883.46976	0.10407
1882.50536	0.10497
1881.54097	0.10585
1880.57657	0.10647
1879.61217	0.10689
1878.64777	0.10745
1877.68337	0.10832
1876.71898	0.10928
1875.75458	0.11005
1874.79018	0.11051
1873.82578	0.11077
1872.86138	0.11119
1871.89698	0.11185
1870.93259	0.11256
1869.96819	0.11337
1869.00379	0.11427
1868.03939	0.11488
1867.07499	0.11525
1866.11059	0.11561
1865.14620	0.11592
1864.18180	0.11618
1863.21740	0.11664
1862.25300	0.11747
1861.28860	0.11836
1860.32421	0.11888
1859.35981	0.11918
1858.39541	0.11966
1857.43101	0.12052
1856.46661	0.12157
1855.50221	0.12241
1854.53782	0.12293
1853.57342	0.12343
1852.60902	0.12416
1851.64462	0.12507
1850.68022	0.12592
1849.71582	0.12641
1848.75143	0.12669
1847.78703	0.12720
1846.82263	0.12792
1845.85823	0.12872
1844.89383	0.12999
1843.92944	0.13157
1842.96504	0.13227
1842.00064	0.13241
1841.03624	0.13287
1840.07184	0.13358
1839.10744	0.13419
1838.14305	0.13475
1837.17865	0.13555
1836.21425	0.13653
1835.24985	0.13742
1834.28545	0.13816
1833.32105	0.13883
1832.35666	0.13957
1831.39226	0.14058
1830.42786	0.14197
1829.46346	0.14310
1828.49906	0.14354
1827.53467	0.14394
1826.57027	0.14479
1825.60587	0.14612
1824.64147	0.14725
1823.67707	0.14754
1822.71267	0.14775
1821.74828	0.14853
1820.78388	0.14964
1819.81948	0.15053
1818.85508	0.15110
1817.89068	0.15182
1816.92628	0.15294
1815.96189	0.15404
1814.99749	0.15484
1814.03309	0.15540
1813.06869	0.15593
1812.10429	0.15675
1811.13990	0.15795
1810.17550	0.15898
1809.21110	0.15944
1808.24670	0.15986
1807.28230	0.16063
1806.31790	0.16152
1805.35351	0.16222
1804.38911	0.16263
1803.42471	0.16312
1802.46031	0.16417
1801.49591	0.16549
1800.53151	0.16648
1799.56712	0.16713
1798.60272	0.16745
1797.63832	0.16769
1796.67392	0.16845
1795.70952	0.16968
1794.74512	0.17050
1793.78073	0.17087
1792.81633	0.17166
1791.85193	0.17287
1790.88753	0.17373
1789.92313	0.17403
1788.95874	0.17392
1787.99434	0.17403
1787.02994	0.17471
1786.06554	0.17573
1785.10114	0.17690
1784.13674	0.17785
1783.17235	0.17848
1782.20795	0.17924
1781.24355	0.18034
1780.27915	0.18140
1779.31475	0.18199
1778.35035	0.18223
1777.38596	0.18275
1776.42156	0.18395
1775.45716	0.18531
1774.49276	0.18595
1773.52836	0.18666
1772.56397	0.18882
1771.59957	0.19121
1770.63517	0.19207
1769.67077	0.19217
1768.70637	0.19272
1767.74197	0.19389
1766.77758	0.19495
1765.81318	0.19592
1764.84878	0.19705
1763.88438	0.19787
1762.91998	0.19864
1761.95558	0.20037
1760.99119	0.20237
1760.02679	0.20357
1759.06239	0.20459
1758.09799	0.20588
1757.13359	0.20754
1756.16920	0.20937
1755.20480	0.21076
1754.24040	0.21196
1753.27600	0.21322
1752.31160	0.21494
1751.34720	0.21778
1750.38281	0.22037
1749.41841	0.22173
1748.45401	0.22296
1747.48961	0.22462
1746.52521	0.22681
1745.56081	0.22931
1744.59642	0.23158
1743.63202	0.23370
1742.66762	0.23564
1741.70322	0.23715
1740.73882	0.23921
1739.77443	0.24247
1738.81003	0.24492
1737.84563	0.24601
1736.88123	0.24726
1735.91683	0.24923
1734.95243	0.25299
1733.98804	0.25881
1733.02364	0.26225
1732.05924	0.26313
1731.09484	0.26476
1730.13044	0.26807
1729.16604	0.27164
1728.20165	0.27451
1727.23725	0.27732
1726.27285	0.28041
1725.30845	0.28390
1724.34405	0.28783
1723.37966	0.29179
1722.41526	0.29547
1721.45086	0.29918
1720.48646	0.30294
1719.52206	0.30640
1718.55766	0.31043
1717.59327	0.31580
1716.62887	0.32006
1715.66447	0.32296
1714.70007	0.32616
1713.73567	0.32876
1712.77127	0.33018
1711.80688	0.33198
1710.84248	0.33514
1709.87808	0.33879
1708.91368	0.34123
1707.94928	0.34249
1706.98489	0.34407
1706.02049	0.34616
1705.05609	0.34779
1704.09169	0.34870
1703.12729	0.34884
1702.16289	0.34839
1701.19850	0.34932
1700.23410	0.35400
1699.26970	0.35649
1698.30530	0.35479
1697.34090	0.35304
1696.37650	0.35368
1695.41211	0.35605
1694.44771	0.35601
1693.48331	0.35435
1692.51891	0.35316
1691.55451	0.35284
1690.59012	0.35335
1689.62572	0.35416
1688.66132	0.35433
1687.69692	0.35382
1686.73252	0.35320
1685.76812	0.35362
1684.80373	0.35683
1683.83933	0.35999
1682.87493	0.35927
1681.91053	0.35781
1680.94613	0.35815
1679.98173	0.36003
1679.01734	0.36144
1678.05294	0.36174
1677.08854	0.36165
1676.12414	0.36253
1675.15974	0.36561
1674.19534	0.36796
1673.23095	0.36793
1672.26655	0.36759
1671.30215	0.36783
1670.33775	0.36819
1669.37335	0.36853
1668.40896	0.36740
1667.44456	0.36441
1666.48016	0.36142
1665.51576	0.35923
1664.55136	0.35736
1663.58696	0.35525
1662.62257	0.35257
1661.65817	0.34924
1660.69377	0.34564
1659.72937	0.34185
1658.76497	0.33751
1657.80057	0.33268
1656.83618	0.32793
1655.87178	0.32403
1654.90738	0.32137
1653.94298	0.31982
1652.97858	0.31744
1652.01419	0.31247
1651.04979	0.30780
1650.08539	0.30443
1649.12099	0.30198
1648.15659	0.29954
1647.19219	0.29646
1646.22780	0.29322
1645.26340	0.29039
1644.29900	0.28764
1643.33460	0.28470
1642.37020	0.28166
1641.40580	0.27878
1640.44141	0.27665
1639.47701	0.27525
1638.51261	0.27375
1637.54821	0.27175
1636.58381	0.26978
1635.61942	0.26892
1634.65502	0.26783
1633.69062	0.26481
1632.72622	0.26120
1631.76182	0.25820
1630.79742	0.25593
1629.83303	0.25412
1628.86863	0.25255
1627.90423	0.25063
1626.93983	0.24808
1625.97543	0.24559
1625.01103	0.24382
1624.04664	0.24278
1623.08224	0.24118
1622.11784	0.23822
1621.15344	0.23520
1620.18904	0.23325
1619.22465	0.23195
1618.26025	0.23037
1617.29585	0.22848
1616.33145	0.22648
1615.36705	0.22411
1614.40265	0.22172
1613.43826	0.21966
1612.47386	0.21758
1611.50946	0.21525
1610.54506	0.21308
1609.58066	0.21142
1608.61626	0.21000
1607.65187	0.20828
1606.68747	0.20630
1605.72307	0.20421
1604.75867	0.20218
1603.79427	0.20054
1602.82988	0.19917
1601.86548	0.19762
1600.90108	0.19588
1599.93668	0.19429
1598.97228	0.19282
1598.00788	0.19112
1597.04349	0.18920
1596.07909	0.18731
1595.11469	0.18560
1594.15029	0.18395
1593.18589	0.18207
1592.22149	0.17993
1591.25710	0.17800
1590.29270	0.17659
1589.32830	0.17538
1588.36390	0.17389
1587.39950	0.17194
1586.43511	0.16971
1585.47071	0.16754
1584.50631	0.16573
1583.54191	0.16425
1582.57751	0.16253
1581.61311	0.16034
1580.64872	0.15814
1579.68432	0.15627
1578.71992	0.15454
1577.75552	0.15285
1576.79112	0.15159
1575.82672	0.15046
1574.86233	0.14821
1573.89793	0.14540
1572.93353	0.14290
1571.96913	0.14065
1571.00473	0.13864
1570.04034	0.13719
1569.07594	0.13578
1568.11154	0.13359
1567.14714	0.13097
1566.18274	0.12870
1565.21834	0.12709
1564.25395	0.12575
1563.28955	0.12410
1562.32515	0.12210
1561.36075	0.12020
1560.39635	0.11918
1559.43195	0.11963
1558.46756	0.11982
1557.50316	0.11764
1556.53876	0.11405
1555.57436	0.11111
1554.60996	0.10970
1553.64556	0.10882
1552.68117	0.10725
1551.71677	0.10551
1550.75237	0.10426
1549.78797	0.10334
1548.82357	0.10214
1547.85918	0.10072
1546.89478	0.09937
1545.93038	0.09842
1544.96598	0.09796
1544.00158	0.09750
1543.03718	0.09700
1542.07279	0.09666
1541.10839	0.09616
1540.14399	0.09608
1539.17959	0.09646
1538.21519	0.09511
1537.25079	0.09256
1536.28640	0.09032
1535.32200	0.08913
1534.35760	0.08932
1533.39320	0.09003
1532.42880	0.08952
1531.46441	0.08807
1530.50001	0.08678
1529.53561	0.08622
1528.57121	0.08657
1527.60681	0.08708
1526.64241	0.08689
1525.67802	0.08644
1524.71362	0.08611
1523.74922	0.08601
1522.78482	0.08636
1521.82042	0.08697
1520.85602	0.08705
1519.89163	0.08628
1518.92723	0.08554
1517.96283	0.08571
1516.99843	0.08650
1516.03403	0.08652
1515.06964	0.08600
1514.10524	0.08585
1513.14084	0.08622
1512.17644	0.08678
1511.21204	0.08680
1510.24764	0.08671
1509.28325	0.08734
1508.31885	0.08859
1507.35445	0.09031
1506.39005	0.09214
1505.42565	0.09253
1504.46125	0.09179
1503.49686	0.09141
1502.53246	0.09180
1501.56806	0.09243
1500.60366	0.09271
1499.63926	0.09326
1498.67487	0.09476
1497.71047	0.09634
1496.74607	0.09767
1495.78167	0.09879
1494.81727	0.09910
1493.85287	0.09949
1492.88848	0.10055
1491.92408	0.10192
1490.95968	0.10355
1489.99528	0.10524
1489.03088	0.10640
1488.06648	0.10736
1487.10209	0.10845
1486.13769	0.10926
1485.17329	0.10997
1484.20889	0.11109
1483.24449	0.11252
1482.28010	0.11403
1481.31570	0.11549
1480.35130	0.11672
1479.38690	0.11791
1478.42250	0.11931
1477.45810	0.12092
1476.49371	0.12275
1475.52931	0.12406
1474.56491	0.12491
1473.60051	0.12678
1472.63611	0.12982
1471.67171	0.13195
1470.70732	0.13252
1469.74292	0.13291
1468.77852	0.13415
1467.81412	0.13596
1466.84972	0.13769
1465.88533	0.13950
1464.92093	0.14165
1463.95653	0.14338
1462.99213	0.14445
1462.02773	0.14572
1461.06333	0.14726
1460.09894	0.14888
1459.13454	0.15080
1458.17014	0.15325
1457.20574	0.15668
1456.24134	0.15965
1455.27694	0.16043
1454.31255	0.16074
1453.34815	0.16191
1452.38375	0.16374
1451.41935	0.16548
1450.45495	0.16677
1449.49055	0.16817
1448.52616	0.17046
1447.56176	0.17313
1446.59736	0.17507
1445.63296	0.17655
1444.66856	0.17834
1443.70417	0.18069
1442.73977	0.18331
1441.77537	0.18562
1440.81097	0.18744
1439.84657	0.18916
1438.88217	0.19094
1437.91778	0.19324
1436.95338	0.19691
1435.98898	0.20011
1435.02458	0.20128
1434.06018	0.20257
1433.09578	0.20490
1432.13139	0.20758
1431.16699	0.21024
1430.20259	0.21288
1429.23819	0.21538
1428.27379	0.21763
1427.30940	0.21973
1426.34500	0.22177
1425.38060	0.22405
1424.41620	0.22704
1423.45180	0.23029
1422.48740	0.23291
1421.52301	0.23479
1420.55861	0.23692
1419.59421	0.24061
1418.62981	0.24481
1417.66541	0.24769
1416.70101	0.25001
1415.73662	0.25213
1414.77222	0.25402
1413.80782	0.25633
1412.84342	0.25949
1411.87902	0.26314
1410.91463	0.26626
1409.95023	0.26850
1408.98583	0.27089
1408.02143	0.27431
1407.05703	0.27822
1406.09263	0.28177
1405.12824	0.28482
1404.16384	0.28746
1403.19944	0.29003
1402.23504	0.29301
1401.27064	0.29620
1400.30624	0.29927
1399.34185	0.30256
1398.37745	0.30610
1397.41305	0.30941
1396.44865	0.31248
1395.48425	0.31578
1394.51986	0.31961
1393.55546	0.32313
1392.59106	0.32602
1391.62666	0.32912
1390.66226	0.33230
1389.69786	0.33531
1388.73347	0.33903
1387.76907	0.34452
1386.80467	0.35069
1385.84027	0.35538
1384.87587	0.35877
1383.91147	0.36181
1382.94708	0.36487
1381.98268	0.36779
1381.01828	0.37000
1380.05388	0.37155
1379.08948	0.37340
1378.12509	0.37642
1377.16069	0.38045
1376.19629	0.38488
1375.23189	0.38904
1374.26749	0.39258
1373.30309	0.39603
1372.33870	0.40009
1371.37430	0.40433
1370.40990	0.40793
1369.44550	0.41133
1368.48110	0.41522
1367.51670	0.41935
1366.55231	0.42322
1365.58791	0.42663
1364.62351	0.42992
1363.65911	0.43405
1362.69471	0.43943
1361.73032	0.44515
1360.76592	0.45026
1359.80152	0.45414
1358.83712	0.45724
1357.87272	0.46127
1356.90832	0.46664
1355.94393	0.47173
1354.97953	0.47492
1354.01513	0.47730
1353.05073	0.48136
1352.08633	0.48742
1351.12193	0.49349
1350.15754	0.49813
1349.19314	0.50184
1348.22874	0.50583
1347.26434	0.51110
1346.29994	0.51750
1345.33555	0.52365
1344.37115	0.52847
1343.40675	0.53226
1342.44235	0.53632
1341.47795	0.54130
1340.51355	0.54707
1339.54916	0.55286
1338.58476	0.55833
1337.62036	0.56428
1336.65596	0.57091
1335.69156	0.57731
1334.72716	0.58285
1333.76277	0.58818
1332.79837	0.59460
1331.83397	0.60227
1330.86957	0.60935
1329.90517	0.61443
1328.94077	0.61912
1327.97638	0.62655
1327.01198	0.63745
1326.04758	0.64823
1325.08318	0.65603
1324.11878	0.66182
1323.15439	0.66794
1322.18999	0.67695
1321.22559	0.68912
1320.26119	0.70087
1319.29679	0.70881
1318.33239	0.71501
1317.36800	0.72370
1316.40360	0.73500
1315.43920	0.74578
1314.47480	0.75401
1313.51040	0.76063
1312.54600	0.76817
1311.58161	0.77738
1310.61721	0.78611
1309.65281	0.79299
1308.68841	0.79917
1307.72401	0.80631
1306.75962	0.81373
1305.79522	0.81789
1304.83082	0.81743
1303.86642	0.81510
1302.90202	0.81579
1301.93762	0.82218
1300.97323	0.83004
1300.00883	0.83214
1299.04443	0.82807
1298.08003	0.82580
1297.11563	0.83124
1296.15123	0.84122
1295.18684	0.84752
1294.22244	0.84695
1293.25804	0.84460
1292.29364	0.84633
1291.32924	0.85322
1290.36485	0.86081
1289.40045	0.86280
1288.43605	0.85974
1287.47165	0.85885
1286.50725	0.86241
1285.54285	0.86552
1284.57846	0.86436
1283.61406	0.85881
1282.64966	0.85232
1281.68526	0.84845
1280.72086	0.84595
1279.75646	0.84205
1278.79207	0.83689
1277.82767	0.83167
1276.86327	0.82686
1275.89887	0.82212
1274.93447	0.81505
1273.97008	0.80416
1273.00568	0.79328
1272.04128	0.78674
1271.07688	0.78251
1270.11248	0.77489
1269.14808	0.76296
1268.18369	0.75213
1267.21929	0.74681
1266.25489	0.74642
1265.29049	0.74806
1264.32609	0.74779
1263.36169	0.74393
1262.39730	0.74058
1261.43290	0.74177
1260.46850	0.74608
1259.50410	0.75009
1258.53970	0.75315
1257.57531	0.75693
1256.61091	0.76364
1255.64651	0.77330
1254.68211	0.78266
1253.71771	0.79002
1252.75331	0.79795
1251.78892	0.80989
1250.82452	0.82526
1249.86012	0.83957
1248.89572	0.85086
1247.93132	0.86092
1246.96692	0.87216
1246.00253	0.88664
1245.03813	0.90267
1244.07373	0.91470
1243.10933	0.92374
1242.14493	0.94018
1241.18054	0.96939
1240.21614	1.00267
1239.25174	1.02783
1238.28734	1.04606
1237.32294	1.06931
1236.35854	1.10901
1235.39415	1.16621
1234.42975	1.22271
1233.46535	1.25942
1232.50095	1.28343
1231.53655	1.31068
1230.57215	1.33695
1229.60776	1.33669
1228.64336	1.29471
1227.67896	1.22997
1226.71456	1.16862
1225.75016	1.11967
1224.78577	1.08105
1223.82137	1.04975
1222.85697	1.02659
1221.89257	1.01523
1220.92817	1.01742
1219.96377	1.02917
1218.99938	1.04286
1218.03498	1.06017
1217.07058	1.09128
1216.10618	1.13598
1215.14178	1.18136
1214.17738	1.21366
1213.21299	1.22742
1212.24859	1.23412
1211.28419	1.24978
1210.31979	1.27216
1209.35539	1.28424
1208.39099	1.28116
1207.42660	1.28522
1206.46220	1.32441
1205.49780	1.40534
1204.53340	1.49839
1203.56900	1.54693
1202.60461	1.54478
1201.64021	1.55420
1200.67581	1.60977
1199.71141	1.68158
1198.74701	1.70649
1197.78261	1.67013
1196.81822	1.63161
1195.85382	1.64017
1194.88942	1.69531
1193.92502	1.76961
1192.96062	1.82595
1191.99622	1.86927
1191.03183	1.95431
1190.06743	2.00000
1189.10303	1.84723
1188.13863	1.68058
1187.17423	1.60456
1186.20984	1.60376
1185.24544	1.63467
1184.28104	1.63862
1183.31664	1.58070
1182.35224	1.50678
1181.38784	1.47048
1180.42345	1.46987
1179.45905	1.45590
1178.49465	1.40210
1177.53025	1.34194
1176.56585	1.30658
1175.60145	1.29914
1174.63706	1.30039
1173.67266	1.28436
1172.70826	1.24919
1171.74386	1.22017
1170.77946	1.21492
1169.81507	1.23000
1168.85067	1.24863
1167.88627	1.25636
1166.92187	1.26245
1165.95747	1.28307
1164.99307	1.31355
1164.02868	1.33696
1163.06428	1.34985
1162.09988	1.36880
1161.13548	1.41081
1160.17108	1.47600
1159.20668	1.52114
1158.24229	1.49408
1157.27789	1.42984
1156.31349	1.36586
1155.34909	1.29723
1154.38469	1.21970
1153.42030	1.14052
1152.45590	1.06902
1151.49150	1.01448
1150.52710	0.98163
1149.56270	0.96586
1148.59830	0.96091
1147.63391	0.96745
1146.66951	0.99099
1145.70511	1.03468
1144.74071	1.08941
1143.77631	1.12654
1142.81191	1.11814
1141.84752	1.07417
1140.88312	1.02627
1139.91872	0.99063
1138.95432	0.96205
1137.98992	0.92974
1137.02553	0.89609
1136.06113	0.87070
1135.09673	0.85438
1134.13233	0.84079
1133.16793	0.82592
1132.20353	0.81072
1131.23914	0.79803
1130.27474	0.78773
1129.31034	0.77578
1128.34594	0.76032
1127.38154	0.74454
1126.41714	0.73236
1125.45275	0.72402
1124.48835	0.71673
1123.52395	0.70726
1122.55955	0.69380
1121.59515	0.67997
1120.63076	0.67191
1119.66636	0.66937
1118.70196	0.66667
1117.73756	0.66073
1116.77316	0.65351
1115.80876	0.64855
1114.84437	0.64751
1113.87997	0.64873
1112.91557	0.64937
1111.95117	0.64915
1110.98677	0.65046
1110.02237	0.65638
1109.05798	0.66820
1108.09358	0.68335
1107.12918	0.69902
1106.16478	0.71817
1105.20038	0.74680
1104.23598	0.78799
1103.27159	0.84251
1102.30719	0.90571
1101.34279	0.96529
1100.37839	1.01543
1099.41399	1.04919
1098.44960	1.04243
1097.48520	1.00037
1096.52080	0.96998
1095.55640	0.98098
1094.59200	1.02208
1093.62760	1.05051
1092.66321	1.03500
1091.69881	0.99874
1090.73441	0.98490
1089.77001	1.00754
1088.80561	1.03625
1087.84121	1.02334
1086.87682	0.97283
1085.91242	0.92127
1084.94802	0.88451
1083.98362	0.86146
1083.01922	0.84528
1082.05483	0.82871
1081.09043	0.81143
1080.12603	0.79984
1079.16163	0.79679
1078.19723	0.79678
1077.23283	0.79522
1076.26844	0.79622
1075.30404	0.80478
1074.33964	0.82111
1073.37524	0.84332
1072.41084	0.86689
1071.44644	0.88915
1070.48205	0.91815
1069.51765	0.96198
1068.55325	1.01104
1067.58885	1.04561
1066.62445	1.06309
1065.66006	1.08257
1064.69566	1.12698
1063.73126	1.20317
1062.76686	1.28785
1061.80246	1.35391
1060.83806	1.42055
1059.87367	1.53176
1058.90927	1.72230
1057.94487	1.90813
1056.98047	1.75954
1056.01607	1.55181
1055.05167	1.45505
1054.08728	1.45052
1053.12288	1.49428
1052.15848	1.51327
1051.19408	1.48015
1050.22968	1.45355
1049.26529	1.47410
1048.30089	1.52202
1047.33649	1.52357
1046.37209	1.46562
1045.40769	1.41726
1044.44329	1.40696
1043.47890	1.40913
1042.51450	1.37959
1041.55010	1.32455
1040.58570	1.28752
1039.62130	1.27479
1038.65690	1.25237
1037.69251	1.20061
1036.72811	1.14003
1035.76371	1.09379
1034.79931	1.06800
1033.83491	1.05299
1032.87052	1.03159
1031.90612	0.99742
1030.94172	0.95997
1029.97732	0.93127
1029.01292	0.91636
1028.04852	0.90877
1027.08413	0.89502
1026.11973	0.87151
1025.15533	0.84806
1024.19093	0.83318
1023.22653	0.82508
1022.26213	0.81434
1021.29774	0.79763
1020.33334	0.78227
1019.36894	0.77227
1018.40454	0.76423
1017.44014	0.75518
1016.47575	0.74502
1015.51135	0.73485
1014.54695	0.72768
1013.58255	0.72514
1012.61815	0.72345
1011.65375	0.71917
1010.68936	0.71487
1009.72496	0.71466
1008.76056	0.71795
1007.79616	0.71884
1006.83176	0.71437
1005.86736	0.71000
1004.90297	0.71202
1003.93857	0.72052
1002.97417	0.73040
1002.00977	0.73642
1001.04537	0.73825
1000.08098	0.74046
999.11658	0.74755
998.15218	0.75931
997.18778	0.77009
996.22338	0.77473
995.25898	0.77535
994.29459	0.77875
993.33019	0.78744
992.36579	0.79633
991.40139	0.80033
990.43699	0.80089
989.47259	0.80299
988.50820	0.80911
987.54380	0.81583
986.57940	0.81653
985.61500	0.81121
984.65060	0.80653
983.68620	0.80419
982.72181	0.80028
981.75741	0.79099
980.79301	0.77663
979.82861	0.76553
978.86421	0.76388
977.89982	0.76418
976.93542	0.75573
975.97102	0.73960
975.00662	0.72552
974.04222	0.72059
973.07782	0.72147
972.11343	0.71841
971.14903	0.70744
970.18463	0.69280
969.22023	0.68241
968.25583	0.68052
967.29143	0.68210
966.32704	0.67835
965.36264	0.66775
964.39824	0.65773
963.43384	0.65354
962.46944	0.65189
961.50505	0.64802
960.54065	0.64201
959.57625	0.63586
958.61185	0.63033
957.64745	0.62554
956.68305	0.62113
955.71866	0.61778
954.75426	0.61804
953.78986	0.62294
952.82546	0.63006
951.86106	0.63549
950.89666	0.63840
949.93227	0.64265
948.96787	0.65175
948.00347	0.66457
947.03907	0.67606
946.07467	0.68293
945.11028	0.68913
944.14588	0.70234
943.18148	0.72479
942.21708	0.74891
941.25268	0.76592
940.28828	0.77752
939.32389	0.79211
938.35949	0.81355
937.39509	0.83665
936.43069	0.85273
935.46629	0.86005
934.50189	0.86427
933.53750	0.86910
932.57310	0.87386
931.60870	0.87778
930.64430	0.87876
929.67990	0.87466
928.71551	0.86948
927.75111	0.86647
926.78671	0.86120
925.82231	0.84859
924.85791	0.83100
923.89351	0.81577
922.92912	0.80489
921.96472	0.79242
921.00032	0.77423
920.03592	0.75392
919.07152	0.73788
918.10712	0.72882
917.14273	0.72317
916.17833	0.71471
915.21393	0.70247
914.24953	0.69194
913.28513	0.68734
912.32074	0.68570
911.35634	0.67978
910.39194	0.66871
909.42754	0.66034
908.46314	0.65923
907.49874	0.66120
906.53435	0.66092
905.56995	0.65708
904.60555	0.64991
903.64115	0.64094
902.67675	0.63311
901.71235	0.62630
900.74796	0.61793
899.78356	0.60865
898.81916	0.60055
897.85476	0.59323
896.89036	0.58506
895.92597	0.57458
894.96157	0.56283
893.99717	0.55423
893.03277	0.55065
892.06837	0.54790
891.10397	0.54161
890.13958	0.53208
889.17518	0.52271
888.21078	0.51671
887.24638	0.51297
886.28198	0.50748
885.31758	0.50003
884.35319	0.49494
883.38879	0.49638
882.42439	0.50456
881.45999	0.51690
880.49559	0.53202
879.53120	0.55068
878.56680	0.57559
877.60240	0.60795
876.63800	0.64270
875.67360	0.67116
874.70920	0.68804
873.74481	0.69592
872.78041	0.70175
871.81601	0.70808
870.85161	0.71049
869.88721	0.70549
868.92281	0.69819
867.95842	0.69473
866.99402	0.69286
866.02962	0.68771
865.06522	0.68021
864.10082	0.67327
863.13642	0.66775
862.17203	0.66448
861.20763	0.66197
860.24323	0.65615
859.27883	0.64772
858.31443	0.64279
857.35004	0.64485
856.38564	0.64973
855.42124	0.64904
854.45684	0.64132
853.49244	0.63528
852.52804	0.63784
851.56365	0.64466
850.59925	0.64586
849.63485	0.64022
848.67045	0.63465
847.70605	0.63393
846.74165	0.63966
845.77726	0.64840
844.81286	0.65235
843.84846	0.65150
842.88406	0.65474
841.91966	0.66534
840.95527	0.67703
839.99087	0.68411
839.02647	0.68890
838.06207	0.69726
837.09767	0.71101
836.13327	0.72608
835.16888	0.73826
834.20448	0.75005
833.24008	0.76720
832.27568	0.79252
831.31128	0.82269
830.34688	0.84891
829.38249	0.86792
828.41809	0.88789
827.45369	0.92219
826.48929	0.97284
825.52489	1.01004
824.56050	1.00552
823.59610	0.98431
822.63170	0.98246
821.66730	1.01019
820.70290	1.05625
819.73850	1.10001
818.77411	1.12832
817.80971	1.14501
816.84531	1.16288
815.88091	1.18167
814.91651	1.17612
813.95211	1.13770
812.98772	1.10098
812.02332	1.08609
811.05892	1.08138
810.09452	1.07873
809.13012	1.08255
808.16573	1.09498
807.20133	1.11634
806.23693	1.13109
805.27253	1.11238
804.30813	1.06614
803.34373	1.01443
802.37934	0.96349
801.41494	0.91147
800.45054	0.85883
799.48614	0.80845
798.52174	0.76541
797.55734	0.73578
796.59295	0.71767
795.62855	0.69986
794.66415	0.67374
793.69975	0.64335
792.73535	0.61925
791.77096	0.60425
790.80656	0.59222
789.84216	0.57735
788.87776	0.55879
787.91336	0.53991
786.94896	0.52495
785.98457	0.51425
785.02017	0.50445
784.05577	0.49358
783.09137	0.48256
782.12697	0.47269
781.16257	0.46406
780.19818	0.45478
779.23378	0.44367
778.26938	0.43300
777.30498	0.42504
776.34058	0.41861
775.37619	0.41091
774.41179	0.40107
773.44739	0.39101
772.48299	0.38338
771.51859	0.37894
770.55419	0.37542
769.58980	0.36945
768.62540	0.36051
767.66100	0.35220
766.69660	0.34706
765.73220	0.34316
764.76780	0.33761
763.80341	0.33016
762.83901	0.32306
761.87461	0.31866
760.91021	0.31628
759.94581	0.31294
758.98142	0.30727
758.01702	0.30079
757.05262	0.29565
756.08822	0.29242
755.12382	0.28982
754.15942	0.28619
753.19503	0.28156
752.23063	0.27744
751.26623	0.27440
750.30183	0.27136
749.33743	0.26769
748.37303	0.26428
747.40864	0.26209
746.44424	0.26076
745.47984	0.25913
744.51544	0.25608
743.55104	0.25192
742.58664	0.24893
741.62225	0.24846
740.65785	0.24879
739.69345	0.24734
738.72905	0.24401
737.76465	0.24115
736.80026	0.24063
735.83586	0.24190
734.87146	0.24295
733.90706	0.24222
732.94266	0.24007
731.97826	0.23833
731.01387	0.23855
730.04947	0.24018
729.08507	0.24077
728.12067	0.23935
727.15627	0.23784
726.19187	0.23811
725.22748	0.23981
724.26308	0.24094
723.29868	0.24075
722.33428	0.24030
721.36988	0.24023
720.40549	0.24031
719.44109	0.24005
718.47669	0.23912
717.51229	0.23785
716.54789	0.23708
715.58349	0.23680
714.61910	0.23566
713.65470	0.23296
712.69030	0.23020
711.72590	0.22915
710.76150	0.22908
709.79710	0.22751
708.83271	0.22349
707.86831	0.21824
706.90391	0.21386
705.93951	0.21147
704.97511	0.20970
704.01072	0.20604
703.04632	0.20015
702.08192	0.19428
701.11752	0.19037
700.15312	0.18801
699.18872	0.18543
698.22433	0.18157
697.25993	0.17669
696.29553	0.17188
695.33113	0.16813
694.36673	0.16495
693.40233	0.16136
692.43794	0.15725
691.47354	0.15339
690.50914	0.15062
689.54474	0.14843
688.58034	0.14560
687.61595	0.14236
686.65155	0.14020
685.68715	0.13946
684.72275	0.13823
683.75835	0.13496
682.79395	0.13108
681.82956	0.12902
680.86516	0.12885
679.90076	0.12889
678.93636	0.12809
677.97196	0.12644
677.00756	0.12479
676.04317	0.12434
675.07877	0.12513
674.11437	0.12565
673.14997	0.12467
672.18557	0.12292
671.22118	0.12187
670.25678	0.12183
669.29238	0.12237
668.32798	0.12323
667.36358	0.12268
666.39918	0.12135
665.43479	0.12068
664.47039	0.12067
663.50599	0.12081
662.54159	0.12066
661.57719	0.12059
660.61279	0.12141
659.64840	0.12232
658.68400	0.12155
657.71960	0.11936
656.75520	0.11791
655.79080	0.11833
654.82641	0.11929
653.86201	0.11867
652.89761	0.11690
651.93321	0.11648
650.96881	0.11808
650.00441	0.11976
649.04002	0.11989
648.07562	0.11866
647.11122	0.11673
646.14682	0.11507
645.18242	0.11502
644.21802	0.11600
643.25363	0.11563
642.28923	0.11339
641.32483	0.11114
640.36043	0.11032
639.39603	0.11066
638.43163	0.11081
637.46724	0.10966
636.50284	0.10749
635.53844	0.10534
634.57404	0.10363
633.60964	0.10184
632.64525	0.09919
631.68085	0.09650
630.71645	0.09542
629.75205	0.09526
628.78765	0.09402
627.82325	0.09156
626.85886	0.08950
625.89446	0.08876
624.93006	0.08863
623.96566	0.08781
623.00126	0.08539
622.03686	0.08188
621.07247	0.07928
620.10807	0.07878
619.14367	0.07920
618.17927	0.07858
617.21487	0.07657
616.25048	0.07481
615.28608	0.07509
614.32168	0.07718
613.35728	0.07873
612.39288	0.07790
611.42848	0.07577
610.46409	0.07484
609.49969	0.07610
608.53529	0.07858
607.57089	0.08074
606.60649	0.08202
605.64209	0.08371
604.67770	0.08688
603.71330	0.09071
602.74890	0.09380
601.78450	0.09603
600.82010	0.09925
599.85571	0.10450
598.89131	0.10960
597.92691	0.11265
596.96251	0.11532
595.99811	0.12021
595.03371	0.12764
594.06932	0.13566
593.10492	0.14235
592.14052	0.14803
591.17612	0.15466
590.21172	0.16398
589.24732	0.17582
588.28293	0.18725
587.31853	0.19571
586.35413	0.20323
585.38973	0.21394
584.42533	0.22894
583.46094	0.24538
582.49654	0.25980
581.53214	0.27226
580.56774	0.28672
579.60334	0.30614
578.63894	0.32888
577.67455	0.35077
576.71015	0.37074
575.74575	0.39178
574.78135	0.41516
573.81695	0.43887
572.85255	0.46011
571.88816	0.47839
570.92376	0.49788
569.95936	0.52115
568.99496	0.54220
568.03056	0.55144
567.06617	0.54872
566.10177	0.54389
565.13737	0.54386
564.17297	0.54539
563.20857	0.53896
562.24417	0.52020
561.27978	0.49796
560.31538	0.48501
559.35098	0.48452
558.38658	0.48867
557.42218	0.48708
556.45778	0.47817
555.49339	0.47086
554.52899	0.47307
553.56459	0.48247
552.60019	0.48985
551.63579	0.49055
550.67140	0.48933
549.70700	0.49434
548.74260	0.50874
547.77820	0.52848
546.81380	0.54873
545.84940	0.57044
544.88501	0.59837
543.92061	0.63125
542.95621	0.65991
541.99181	0.68072
541.02741	0.70113
540.06301	0.72825
539.09862	0.75950
538.13422	0.78193
537.16982	0.78637
536.20542	0.78949
535.24102	0.81876
534.27663	0.88060
533.31223	0.94829
532.34783	0.96692
531.38343	0.93165
530.41903	0.90692
529.45463	0.92680
528.49024	0.97336
527.52584	0.99386
526.56144	0.95997
525.59704	0.91311
524.63264	0.89569
523.66824	0.91203
522.70385	0.93781
521.73945	0.93438
520.77505	0.89697
519.81065	0.86316
518.84625	0.85855
517.88185	0.87043
516.91746	0.87152
515.95306	0.86470
514.98866	0.87194
514.02426	0.89410
513.05986	0.90967
512.09547	0.90645
511.13107	0.89771
510.16667	0.90216
509.20227	0.92618
508.23787	0.95139
507.27347	0.94314
506.30908	0.90267
505.34468	0.87355
504.38028	0.87757
503.41588	0.88878
502.45148	0.85810
501.48708	0.78965
500.52269	0.73473
499.55829	0.71603
498.59389	0.72177
497.62949	0.72400
496.66509	0.70455
495.70070	0.67075
494.73630	0.64538
493.77190	0.64209
492.80750	0.64780
491.84310	0.63785
490.87870	0.61381
489.91431	0.59532
488.94991	0.58974
487.98551	0.59085
487.02111	0.58660
486.05671	0.57683
485.09231	0.57684
484.12792	0.59191
483.16352	0.60951
482.19912	0.61998
481.23472	0.62814
480.27032	0.64201
479.30593	0.66734
478.34153	0.70572
477.37713	0.74495
476.41273	0.76609
475.44833	0.77642
474.48393	0.80819
473.51954	0.87639
472.55514	0.93972
471.59074	0.92719
470.62634	0.87369
469.66194	0.84085
468.69754	0.83937
467.73315	0.84729
466.76875	0.82043
465.80435	0.74618
464.83995	0.66798
463.87555	0.61636
462.91116	0.58303
461.94676	0.54738
460.98236	0.50713
460.01796	0.47297
459.05356	0.44813
458.08916	0.42694
457.12477	0.40282
456.16037	0.37764
455.19597	0.35600
454.23157	0.33942
453.26717	0.32620
452.30277	0.31124
451.33838	0.29204
450.37398	0.27296
449.40958	0.26076
448.44518	0.25601
447.48078	0.25145
446.51639	0.24125
445.55199	0.22751
444.58759	0.21673
443.62319	0.21252
442.65879	0.21095
441.69439	0.20462
440.73000	0.19299
439.76560	0.18223
438.80120	0.17818
437.83680	0.18239
436.87240	0.19026
435.90800	0.19480
434.94361	0.19624
433.97921	0.20126
433.01481	0.21278
432.05041	0.22766
431.08601	0.24074
430.12162	0.25037
429.15722	0.26008
428.19282	0.27290
427.22842	0.28747
426.26402	0.30053
425.29962	0.30970
424.33523	0.31721
423.37083	0.32896
422.40643	0.33892
421.44203	0.33343
420.47763	0.31567
419.51323	0.29943
418.54884	0.29622
417.58444	0.29562
416.62004	0.28089
415.65564	0.25737
414.69124	0.23971
413.72685	0.23475
412.76245	0.23774
411.79805	0.23687
410.83365	0.22414
409.86925	0.20552
408.90485	0.19401
407.94046	0.19486
406.97606	0.20074
406.01166	0.19999
405.04726	0.19147
404.08286	0.18537
403.11846	0.18695
402.15407	0.19000
401.18967	0.18632
400.22527	0.17425
399.26087	0.15855
398.29647	0.14501
397.33207	0.13166
396.36768	0.11390
395.40328	0.09505
394.43888	0.07932
393.47448	0.06951
392.51008	0.06250
391.54569	0.05204
390.58129	0.03842
389.61689	0.02761
388.65249	0.02417
387.68809	0.02601
386.72369	0.02557
385.75930	0.01812
384.79490	0.00747
383.83050	0.00202
382.86610	0.00421
381.90170	0.00912
380.93730	0.01042
379.97291	0.00600
379.00851	0.00079
378.04411	0.00000
377.07971	0.00825
376.11531	0.01891
375.15092	0.02122
374.18652	0.01548
373.22212	0.01384
372.25772	0.01947
371.29332	0.02416
370.32892	0.01745
369.36453	0.00079
