3998.39510	0.03274
3997.43071	0.03166
3996.46631	0.03020
3995.50191	0.02972
3994.53751	0.02932
3993.57311	0.02891
3992.60871	0.03015
3991.64432	0.03235
3990.67992	0.03283
3989.71552	0.03177
3988.75112	0.03074
3987.78672	0.02950
3986.82232	0.02886
3985.85793	0.02985
3984.89353	0.03096
3983.92913	0.03098
3982.96473	0.03021
3982.00033	0.02909
3981.03594	0.02803
3980.07154	0.02721
3979.10714	0.02717
3978.14274	0.02865
3977.17834	0.03098
3976.21394	0.03216
3975.24955	0.03083
3974.28515	0.02784
3973.32075	0.02556
3972.35635	0.02559
3971.39195	0.02695
3970.42755	0.02809
3969.46316	0.02888
3968.49876	0.02907
3967.53436	0.02876
3966.56996	0.02889
3965.60556	0.02954
3964.64117	0.03031
3963.67677	0.03122
3962.71237	0.03185
3961.74797	0.03088
3960.78357	0.02924
3959.81917	0.02916
3958.85478	0.02987
3957.89038	0.03007
3956.92598	0.02980
3955.96158	0.02971
3954.99718	0.03018
3954.03278	0.03043
3953.06839	0.03093
3952.10399	0.03178
3951.13959	0.03157
3950.17519	0.03090
3949.21079	0.03104
3948.24640	0.03196
3947.28200	0.03229
3946.31760	0.03083
3945.35320	0.02878
3944.38880	0.02805
3943.42440	0.02969
3942.46001	0.03182
3941.49561	0.03191
3940.53121	0.03115
3939.56681	0.03015
3938.60241	0.02864
3937.63801	0.02821
3936.67362	0.02968
3935.70922	0.03132
3934.74482	0.03124
3933.78042	0.03010
3932.81602	0.03020
3931.85163	0.03133
3930.88723	0.03187
3929.92283	0.03227
3928.95843	0.03260
3927.99403	0.03213
3927.02963	0.03158
3926.06524	0.03234
3925.10084	0.03473
3924.13644	0.03616
3923.17204	0.03474
3922.20764	0.03226
3921.24324	0.03137
3920.27885	0.03267
3919.31445	0.03330
3918.35005	0.03248
3917.38565	0.03264
3916.42125	0.03318
3915.45686	0.03232
3914.49246	0.03098
3913.52806	0.03033
3912.56366	0.03032
3911.59926	0.03051
3910.63486	0.03033
3909.67047	0.02980
3908.70607	0.02942
3907.74167	0.02939
3906.77727	0.03035
3905.81287	0.03204
3904.84847	0.03371
3903.88408	0.03480
3902.91968	0.03571
3901.95528	0.03790
3900.99088	0.03827
3900.02648	0.03617
3899.06209	0.03488
3898.09769	0.03371
3897.13329	0.03265
3896.16889	0.03242
3895.20449	0.03241
3894.24009	0.03229
3893.27570	0.03099
3892.31130	0.03051
3891.34690	0.03419
3890.38250	0.03598
3889.41810	0.03305
3888.45370	0.02981
3887.48931	0.02901
3886.52491	0.03373
3885.56051	0.04108
3884.59611	0.04127
3883.63171	0.03743
3882.66731	0.03353
3881.70292	0.03150
3880.73852	0.03434
3879.77412	0.03708
3878.80972	0.03531
3877.84532	0.03321
3876.88093	0.03216
3875.91653	0.03126
3874.95213	0.03284
3873.98773	0.03577
3873.02333	0.03340
3872.05893	0.02764
3871.09454	0.02556
3870.13014	0.03222
3869.16574	0.03735
3868.20134	0.03381
3867.23694	0.02869
3866.27254	0.02759
3865.30815	0.03258
3864.34375	0.03605
3863.37935	0.03382
3862.41495	0.03368
3861.45055	0.03627
3860.48616	0.03471
3859.52176	0.03145
3858.55736	0.03108
3857.59296	0.03280
3856.62856	0.03249
3855.66416	0.02937
3854.69977	0.03197
3853.73537	0.04414
3852.77097	0.04714
3851.80657	0.04154
3850.84217	0.03540
3849.87777	0.03309
3848.91338	0.03335
3847.94898	0.03219
3846.98458	0.03051
3846.02018	0.02957
3845.05578	0.02908
3844.09139	0.03090
3843.12699	0.03304
3842.16259	0.03340
3841.19819	0.03588
3840.23379	0.03822
3839.26939	0.03626
3838.30500	0.03686
3837.34060	0.03925
3836.37620	0.03671
3835.41180	0.03510
3834.44740	0.03596
3833.48300	0.03438
3832.51861	0.03280
3831.55421	0.03385
3830.58981	0.03367
3829.62541	0.03212
3828.66101	0.03140
3827.69662	0.03203
3826.73222	0.03342
3825.76782	0.03322
3824.80342	0.03169
3823.83902	0.03079
3822.87462	0.03155
3821.91023	0.03710
3820.94583	0.04383
3819.98143	0.04146
3819.01703	0.03550
3818.05263	0.03130
3817.08823	0.03100
3816.12384	0.03587
3815.15944	0.03641
3814.19504	0.03107
3813.23064	0.02757
3812.26624	0.02850
3811.30185	0.03126
3810.33745	0.03267
3809.37305	0.03089
3808.40865	0.02841
3807.44425	0.03081
3806.47985	0.03437
3805.51546	0.03238
3804.55106	0.02898
3803.58666	0.02652
3802.62226	0.02680
3801.65786	0.03383
3800.69346	0.03801
3799.72907	0.03481
3798.76467	0.03164
3797.80027	0.03145
3796.83587	0.03257
3795.87147	0.03187
3794.90708	0.03028
3793.94268	0.03011
3792.97828	0.03097
3792.01388	0.03172
3791.04948	0.03132
3790.08508	0.02984
3789.12069	0.02935
3788.15629	0.02974
3787.19189	0.02921
3786.22749	0.02896
3785.26309	0.03035
3784.29869	0.03055
3783.33430	0.02882
3782.36990	0.02793
3781.40550	0.02759
3780.44110	0.02806
3779.47670	0.03068
3778.51230	0.03168
3777.54791	0.03053
3776.58351	0.02983
3775.61911	0.02875
3774.65471	0.02699
3773.69031	0.02697
3772.72592	0.02794
3771.76152	0.02781
3770.79712	0.02993
3769.83272	0.03528
3768.86832	0.03601
3767.90392	0.03187
3766.93953	0.02857
3765.97513	0.02939
3765.01073	0.03108
3764.04633	0.03008
3763.08193	0.02845
3762.11753	0.02808
3761.15314	0.02960
3760.18874	0.03385
3759.22434	0.03660
3758.25994	0.03485
3757.29554	0.03349
3756.33115	0.03320
3755.36675	0.03074
3754.40235	0.02785
3753.43795	0.02890
3752.47355	0.03685
3751.50915	0.04100
3750.54476	0.03727
3749.58036	0.03523
3748.61596	0.03509
3747.65156	0.03340
3746.68716	0.03146
3745.72276	0.03245
3744.75837	0.04415
3743.79397	0.04776
3742.82957	0.03860
3741.86517	0.03214
3740.90077	0.03216
3739.93638	0.03426
3738.97198	0.03531
3738.00758	0.03459
3737.04318	0.03362
3736.07878	0.03691
3735.11438	0.04139
3734.14999	0.03879
3733.18559	0.03447
3732.22119	0.03567
3731.25679	0.03667
3730.29239	0.03378
3729.32799	0.03097
3728.36360	0.02937
3727.39920	0.03015
3726.43480	0.03382
3725.47040	0.03549
3724.50600	0.03278
3723.54161	0.02976
3722.57721	0.03126
3721.61281	0.03367
3720.64841	0.03204
3719.68401	0.03029
3718.71961	0.03049
3717.75522	0.02996
3716.79082	0.02938
3715.82642	0.03074
3714.86202	0.03161
3713.89762	0.02912
3712.93322	0.02827
3711.96883	0.03410
3711.00443	0.03711
3710.04003	0.03618
3709.07563	0.03622
3708.11123	0.03525
3707.14684	0.03366
3706.18244	0.03367
3705.21804	0.03368
3704.25364	0.03212
3703.28924	0.03068
3702.32484	0.03190
3701.36045	0.03374
3700.39605	0.03263
3699.43165	0.03104
3698.46725	0.03158
3697.50285	0.03315
3696.53845	0.03338
3695.57406	0.03213
3694.60966	0.03139
3693.64526	0.03045
3692.68086	0.02880
3691.71646	0.03101
3690.75207	0.03517
3689.78767	0.03594
3688.82327	0.03990
3687.85887	0.04444
3686.89447	0.04090
3685.93007	0.03533
3684.96568	0.03218
3684.00128	0.03042
3683.03688	0.02976
3682.07248	0.03084
3681.10808	0.03191
3680.14368	0.03178
3679.17929	0.03178
3678.21489	0.03220
3677.25049	0.03318
3676.28609	0.03921
3675.32169	0.04911
3674.35730	0.04764
3673.39290	0.03875
3672.42850	0.03132
3671.46410	0.03093
3670.49970	0.03675
3669.53530	0.03916
3668.57091	0.03754
3667.60651	0.03545
3666.64211	0.03411
3665.67771	0.03350
3664.71331	0.03230
3663.74891	0.03112
3662.78452	0.03204
3661.82012	0.03374
3660.85572	0.03343
3659.89132	0.03190
3658.92692	0.03096
3657.96252	0.03053
3656.99813	0.03273
3656.03373	0.03689
3655.06933	0.03656
3654.10493	0.03381
3653.14053	0.03312
3652.17614	0.03508
3651.21174	0.03802
3650.24734	0.03958
3649.28294	0.03885
3648.31854	0.03718
3647.35414	0.03680
3646.38975	0.03571
3645.42535	0.03165
3644.46095	0.02791
3643.49655	0.02705
3642.53215	0.02769
3641.56775	0.02781
3640.60336	0.02711
3639.63896	0.02731
3638.67456	0.02927
3637.71016	0.03023
3636.74576	0.02892
3635.78137	0.02820
3634.81697	0.03018
3633.85257	0.03269
3632.88817	0.03173
3631.92377	0.02784
3630.95937	0.02556
3629.99498	0.03107
3629.03058	0.04210
3628.06618	0.04286
3627.10178	0.03668
3626.13738	0.03105
3625.17298	0.02747
3624.20859	0.02614
3623.24419	0.02691
3622.27979	0.02825
3621.31539	0.02876
3620.35099	0.02954
3619.38660	0.03095
3618.42220	0.03110
3617.45780	0.02977
3616.49340	0.02841
3615.52900	0.02903
3614.56460	0.03062
3613.60021	0.03058
3612.63581	0.03023
3611.67141	0.02907
3610.70701	0.02728
3609.74261	0.02909
3608.77821	0.03226
3607.81382	0.03212
3606.84942	0.03158
3605.88502	0.03178
3604.92062	0.03142
3603.95622	0.03111
3602.99183	0.03218
3602.02743	0.03419
3601.06303	0.03460
3600.09863	0.03210
3599.13423	0.02958
3598.16983	0.02932
3597.20544	0.02953
3596.24104	0.02994
3595.27664	0.03127
3594.31224	0.03113
3593.34784	0.02922
3592.38344	0.02800
3591.41905	0.02800
3590.45465	0.02820
3589.49025	0.02923
3588.52585	0.03090
3587.56145	0.03167
3586.59706	0.03225
3585.63266	0.03179
3584.66826	0.03090
3583.70386	0.03124
3582.73946	0.03082
3581.77506	0.02833
3580.81067	0.02588
3579.84627	0.02556
3578.88187	0.02722
3577.91747	0.02925
3576.95307	0.02992
3575.98867	0.02906
3575.02428	0.02843
3574.05988	0.02873
3573.09548	0.02940
3572.13108	0.03083
3571.16668	0.03294
3570.20229	0.03318
3569.23789	0.03178
3568.27349	0.03319
3567.30909	0.03687
3566.34469	0.03847
3565.38029	0.03712
3564.41590	0.03488
3563.45150	0.03467
3562.48710	0.03490
3561.52270	0.03321
3560.55830	0.03243
3559.59390	0.03339
3558.62951	0.03328
3557.66511	0.03262
3556.70071	0.03310
3555.73631	0.03403
3554.77191	0.03427
3553.80752	0.03308
3552.84312	0.03181
3551.87872	0.03198
3550.91432	0.03228
3549.94992	0.03221
3548.98552	0.03278
3548.02113	0.03449
3547.05673	0.03622
3546.09233	0.03686
3545.12793	0.03704
3544.16353	0.03633
3543.19913	0.03502
3542.23474	0.03434
3541.27034	0.03310
3540.30594	0.03146
3539.34154	0.03142
3538.37714	0.03295
3537.41274	0.03583
3536.44835	0.03888
3535.48395	0.03965
3534.51955	0.03867
3533.55515	0.03797
3532.59075	0.03821
3531.62636	0.03844
3530.66196	0.03782
3529.69756	0.03694
3528.73316	0.03699
3527.76876	0.03872
3526.80436	0.04043
3525.83997	0.04058
3524.87557	0.04039
3523.91117	0.04039
3522.94677	0.03969
3521.98237	0.03833
3521.01797	0.03786
3520.05358	0.03929
3519.08918	0.04111
3518.12478	0.04164
3517.16038	0.04130
3516.19598	0.04047
3515.23159	0.03874
3514.26719	0.03690
3513.30279	0.03644
3512.33839	0.03719
3511.37399	0.03819
3510.40959	0.03966
3509.44520	0.04105
3508.48080	0.04126
3507.51640	0.04090
3506.55200	0.04073
3505.58760	0.04134
3504.62320	0.04258
3503.65881	0.04315
3502.69441	0.04256
3501.73001	0.04095
3500.76561	0.03892
3499.80121	0.03821
3498.83682	0.03973
3497.87242	0.04214
3496.90802	0.04355
3495.94362	0.04343
3494.97922	0.04259
3494.01482	0.04235
3493.05043	0.04348
3492.08603	0.04483
3491.12163	0.04436
3490.15723	0.04258
3489.19283	0.04193
3488.22843	0.04273
3487.26404	0.04360
3486.29964	0.04404
3485.33524	0.04421
3484.37084	0.04423
3483.40644	0.04417
3482.44205	0.04438
3481.47765	0.04577
3480.51325	0.04817
3479.54885	0.04906
3478.58445	0.04787
3477.62005	0.04668
3476.65566	0.04611
3475.69126	0.04563
3474.72686	0.04511
3473.76246	0.04500
3472.79806	0.04636
3471.83366	0.04915
3470.86927	0.05174
3469.90487	0.05301
3468.94047	0.05296
3467.97607	0.05222
3467.01167	0.05138
3466.04728	0.05027
3465.08288	0.04911
3464.11848	0.04894
3463.15408	0.05027
3462.18968	0.05245
3461.22528	0.05418
3460.26089	0.05511
3459.29649	0.05549
3458.33209	0.05516
3457.36769	0.05495
3456.40329	0.05572
3455.43889	0.05640
3454.47450	0.05560
3453.51010	0.05390
3452.54570	0.05341
3451.58130	0.05494
3450.61690	0.05682
3449.65251	0.05770
3448.68811	0.05852
3447.72371	0.06023
3446.75931	0.06102
3445.79491	0.05960
3444.83051	0.05813
3443.86612	0.05845
3442.90172	0.05989
3441.93732	0.06119
3440.97292	0.06187
3440.00852	0.06211
3439.04412	0.06255
3438.07973	0.06331
3437.11533	0.06410
3436.15093	0.06542
3435.18653	0.06705
3434.22213	0.06731
3433.25774	0.06626
3432.29334	0.06552
3431.32894	0.06563
3430.36454	0.06608
3429.40014	0.06674
3428.43574	0.06720
3427.47135	0.06699
3426.50695	0.06695
3425.54255	0.06684
3424.57815	0.06603
3423.61375	0.06613
3422.64935	0.06747
3421.68496	0.06874
3420.72056	0.06967
3419.75616	0.06986
3418.79176	0.06914
3417.82736	0.06887
3416.86296	0.06949
3415.89857	0.06994
3414.93417	0.07021
3413.96977	0.07087
3413.00537	0.07096
3412.04097	0.07040
3411.07658	0.07076
3410.11218	0.07147
3409.14778	0.07153
3408.18338	0.07141
3407.21898	0.07109
3406.25458	0.07117
3405.29019	0.07214
3404.32579	0.07286
3403.36139	0.07295
3402.39699	0.07334
3401.43259	0.07481
3400.46819	0.07637
3399.50380	0.07601
3398.53940	0.07376
3397.57500	0.07184
3396.61060	0.07162
3395.64620	0.07227
3394.68181	0.07307
3393.71741	0.07474
3392.75301	0.07692
3391.78861	0.07772
3390.82421	0.07702
3389.85981	0.07657
3388.89542	0.07701
3387.93102	0.07765
3386.96662	0.07767
3386.00222	0.07654
3385.03782	0.07529
3384.07342	0.07512
3383.10903	0.07572
3382.14463	0.07675
3381.18023	0.07801
3380.21583	0.07841
3379.25143	0.07729
3378.28704	0.07577
3377.32264	0.07585
3376.35824	0.07780
3375.39384	0.07947
3374.42944	0.07977
3373.46504	0.07976
3372.50065	0.07990
3371.53625	0.07989
3370.57185	0.07966
3369.60745	0.07934
3368.64305	0.07935
3367.67865	0.07991
3366.71426	0.08069
3365.74986	0.08111
3364.78546	0.08082
3363.82106	0.07989
3362.85666	0.07948
3361.89227	0.08021
3360.92787	0.08056
3359.96347	0.07978
3358.99907	0.07813
3358.03467	0.07659
3357.07027	0.07679
3356.10588	0.07818
3355.14148	0.07916
3354.17708	0.07944
3353.21268	0.07976
3352.24828	0.08085
3351.28388	0.08165
3350.31949	0.08082
3349.35509	0.07932
3348.39069	0.07865
3347.42629	0.07942
3346.46189	0.08116
3345.49750	0.08256
3344.53310	0.08291
3343.56870	0.08270
3342.60430	0.08235
3341.63990	0.08204
3340.67550	0.08225
3339.71111	0.08290
3338.74671	0.08307
3337.78231	0.08244
3336.81791	0.08177
3335.85351	0.08210
3334.88911	0.08283
3333.92472	0.08265
3332.96032	0.08242
3331.99592	0.08300
3331.03152	0.08310
3330.06712	0.08207
3329.10273	0.08149
3328.13833	0.08252
3327.17393	0.08484
3326.20953	0.08733
3325.24513	0.08746
3324.28073	0.08507
3323.31634	0.08375
3322.35194	0.08438
3321.38754	0.08497
3320.42314	0.08484
3319.45874	0.08446
3318.49434	0.08405
3317.52995	0.08347
3316.56555	0.08322
3315.60115	0.08377
3314.63675	0.08424
3313.67235	0.08411
3312.70795	0.08430
3311.74356	0.08572
3310.77916	0.08831
3309.81476	0.09065
3308.85036	0.09116
3307.88596	0.09094
3306.92157	0.09211
3305.95717	0.09343
3304.99277	0.09248
3304.02837	0.09035
3303.06397	0.09007
3302.09957	0.09149
3301.13518	0.09193
3300.17078	0.09081
3299.20638	0.09033
3298.24198	0.09220
3297.27758	0.09528
3296.31318	0.09693
3295.34879	0.09711
3294.38439	0.09734
3293.41999	0.09741
3292.45559	0.09691
3291.49119	0.09619
3290.52680	0.09590
3289.56240	0.09624
3288.59800	0.09607
3287.63360	0.09480
3286.66920	0.09367
3285.70480	0.09376
3284.74041	0.09455
3283.77601	0.09502
3282.81161	0.09479
3281.84721	0.09417
3280.88281	0.09354
3279.91841	0.09317
3278.95402	0.09345
3277.98962	0.09468
3277.02522	0.09683
3276.06082	0.09835
3275.09642	0.09755
3274.13203	0.09654
3273.16763	0.09791
3272.20323	0.10063
3271.23883	0.10247
3270.27443	0.10251
3269.31003	0.10173
3268.34564	0.10166
3267.38124	0.10208
3266.41684	0.10162
3265.45244	0.10024
3264.48804	0.09899
3263.52364	0.09836
3262.55925	0.09840
3261.59485	0.09858
3260.63045	0.09894
3259.66605	0.10047
3258.70165	0.10196
3257.73726	0.10186
3256.77286	0.10161
3255.80846	0.10219
3254.84406	0.10262
3253.87966	0.10243
3252.91526	0.10178
3251.95087	0.10151
3250.98647	0.10188
3250.02207	0.10176
3249.05767	0.10170
3248.09327	0.10253
3247.12887	0.10314
3246.16448	0.10319
3245.20008	0.10328
3244.23568	0.10350
3243.27128	0.10404
3242.30688	0.10454
3241.34249	0.10423
3240.37809	0.10390
3239.41369	0.10488
3238.44929	0.10634
3237.48489	0.10682
3236.52049	0.10639
3235.55610	0.10618
3234.59170	0.10652
3233.62730	0.10614
3232.66290	0.10457
3231.69850	0.10286
3230.73410	0.10176
3229.76971	0.10205
3228.80531	0.10346
3227.84091	0.10441
3226.87651	0.10449
3225.91211	0.10390
3224.94772	0.10287
3223.98332	0.10260
3223.01892	0.10337
3222.05452	0.10371
3221.09012	0.10281
3220.12572	0.10185
3219.16133	0.10182
3218.19693	0.10209
3217.23253	0.10199
3216.26813	0.10153
3215.30373	0.10100
3214.33933	0.10076
3213.37494	0.10087
3212.41054	0.10132
3211.44614	0.10114
3210.48174	0.10001
3209.51734	0.09951
3208.55295	0.09915
3207.58855	0.09780
3206.62415	0.09772
3205.65975	0.09999
3204.69535	0.10180
3203.73095	0.10167
3202.76656	0.10085
3201.80216	0.09996
3200.83776	0.09890
3199.87336	0.09809
3198.90896	0.09791
3197.94456	0.09816
3196.98017	0.09834
3196.01577	0.09852
3195.05137	0.09829
3194.08697	0.09715
3193.12257	0.09639
3192.15817	0.09736
3191.19378	0.09915
3190.22938	0.09953
3189.26498	0.09768
3188.30058	0.09484
3187.33618	0.09256
3186.37179	0.09170
3185.40739	0.09224
3184.44299	0.09402
3183.47859	0.09698
3182.51419	0.09984
3181.54979	0.10089
3180.58540	0.10020
3179.62100	0.09920
3178.65660	0.09912
3177.69220	0.09971
3176.72780	0.09894
3175.76340	0.09658
3174.79901	0.09526
3173.83461	0.09555
3172.87021	0.09545
3171.90581	0.09497
3170.94141	0.09568
3169.97702	0.09699
3169.01262	0.09722
3168.04822	0.09692
3167.08382	0.09705
3166.11942	0.09708
3165.15502	0.09729
3164.19063	0.09806
3163.22623	0.09828
3162.26183	0.09775
3161.29743	0.09767
3160.33303	0.09806
3159.36863	0.09816
3158.40424	0.09805
3157.43984	0.09770
3156.47544	0.09748
3155.51104	0.09813
3154.54664	0.09945
3153.58225	0.10151
3152.61785	0.10327
3151.65345	0.10231
3150.68905	0.09942
3149.72465	0.09764
3148.76025	0.09748
3147.79586	0.09740
3146.83146	0.09727
3145.86706	0.09804
3144.90266	0.09913
3143.93826	0.09971
3142.97386	0.10047
3142.00947	0.10134
3141.04507	0.10155
3140.08067	0.10215
3139.11627	0.10355
3138.15187	0.10440
3137.18748	0.10480
3136.22308	0.10518
3135.25868	0.10488
3134.29428	0.10442
3133.32988	0.10438
3132.36548	0.10394
3131.40109	0.10320
3130.43669	0.10268
3129.47229	0.10194
3128.50789	0.10171
3127.54349	0.10310
3126.57909	0.10461
3125.61470	0.10463
3124.65030	0.10443
3123.68590	0.10558
3122.72150	0.10739
3121.75710	0.10863
3120.79271	0.10915
3119.82831	0.10942
3118.86391	0.11009
3117.89951	0.11125
3116.93511	0.11211
3115.97071	0.11179
3115.00632	0.11013
3114.04192	0.10849
3113.07752	0.10821
3112.11312	0.10894
3111.14872	0.11032
3110.18432	0.11180
3109.21993	0.11217
3108.25553	0.11158
3107.29113	0.11078
3106.32673	0.10990
3105.36233	0.10909
3104.39794	0.10932
3103.43354	0.11080
3102.46914	0.11186
3101.50474	0.11195
3100.54034	0.11245
3099.57594	0.11407
3098.61155	0.11562
3097.64715	0.11490
3096.68275	0.11276
3095.71835	0.11225
3094.75395	0.11319
3093.78955	0.11421
3092.82516	0.11541
3091.86076	0.11669
3090.89636	0.11755
3089.93196	0.11754
3088.96756	0.11727
3088.00317	0.11773
3087.03877	0.11811
3086.07437	0.11750
3085.10997	0.11675
3084.14557	0.11711
3083.18117	0.11890
3082.21678	0.12152
3081.25238	0.12370
3080.28798	0.12442
3079.32358	0.12408
3078.35918	0.12347
3077.39478	0.12298
3076.43039	0.12284
3075.46599	0.12297
3074.50159	0.12333
3073.53719	0.12372
3072.57279	0.12385
3071.60839	0.12378
3070.64400	0.12365
3069.67960	0.12359
3068.71520	0.12380
3067.75080	0.12473
3066.78640	0.12613
3065.82201	0.12674
3064.85761	0.12660
3063.89321	0.12699
3062.92881	0.12775
3061.96441	0.12811
3061.00001	0.12884
3060.03562	0.13070
3059.07122	0.13258
3058.10682	0.13310
3057.14242	0.13251
3056.17802	0.13213
3055.21362	0.13303
3054.24923	0.13469
3053.28483	0.13540
3052.32043	0.13486
3051.35603	0.13429
3050.39163	0.13418
3049.42724	0.13418
3048.46284	0.13376
3047.49844	0.13339
3046.53404	0.13480
3045.56964	0.13715
3044.60524	0.13801
3043.64085	0.13806
3042.67645	0.13875
3041.71205	0.13920
3040.74765	0.13866
3039.78325	0.13807
3038.81885	0.13807
3037.85446	0.13884
3036.89006	0.14080
3035.92566	0.14278
3034.96126	0.14381
3033.99686	0.14469
3033.03247	0.14484
3032.06807	0.14384
3031.10367	0.14329
3030.13927	0.14365
3029.17487	0.14437
3028.21047	0.14590
3027.24608	0.14832
3026.28168	0.15026
3025.31728	0.15043
3024.35288	0.14937
3023.38848	0.14892
3022.42408	0.15003
3021.45969	0.15201
3020.49529	0.15351
3019.53089	0.15392
3018.56649	0.15450
3017.60209	0.15607
3016.63770	0.15715
3015.67330	0.15683
3014.70890	0.15616
3013.74450	0.15669
3012.78010	0.15886
3011.81570	0.16095
3010.85131	0.16203
3009.88691	0.16268
3008.92251	0.16261
3007.95811	0.16245
3006.99371	0.16321
3006.02931	0.16425
3005.06492	0.16547
3004.10052	0.16663
3003.13612	0.16626
3002.17172	0.16548
3001.20732	0.16679
3000.24293	0.16947
2999.27853	0.17159
2998.31413	0.17284
2997.34973	0.17363
2996.38533	0.17410
2995.42093	0.17454
2994.45654	0.17543
2993.49214	0.17637
2992.52774	0.17691
2991.56334	0.17784
2990.59894	0.17981
2989.63454	0.18152
2988.67015	0.18111
2987.70575	0.17954
2986.74135	0.17933
2985.77695	0.18044
2984.81255	0.18064
2983.84816	0.18002
2982.88376	0.18080
2981.91936	0.18209
2980.95496	0.18224
2979.99056	0.18264
2979.02616	0.18382
2978.06177	0.18485
2977.09737	0.18617
2976.13297	0.18789
2975.16857	0.18860
2974.20417	0.18778
2973.23977	0.18655
2972.27538	0.18608
2971.31098	0.18672
2970.34658	0.18808
2969.38218	0.18935
2968.41778	0.18987
2967.45339	0.18964
2966.48899	0.18901
2965.52459	0.18811
2964.56019	0.18726
2963.59579	0.18700
2962.63139	0.18751
2961.66700	0.18844
2960.70260	0.18904
2959.73820	0.18897
2958.77380	0.18915
2957.80940	0.19018
2956.84500	0.19102
2955.88061	0.19096
2954.91621	0.19082
2953.95181	0.19160
2952.98741	0.19261
2952.02301	0.19284
2951.05861	0.19243
2950.09422	0.19164
2949.12982	0.19158
2948.16542	0.19250
2947.20102	0.19286
2946.23662	0.19267
2945.27223	0.19304
2944.30783	0.19403
2943.34343	0.19490
2942.37903	0.19483
2941.41463	0.19424
2940.45023	0.19439
2939.48584	0.19521
2938.52144	0.19580
2937.55704	0.19648
2936.59264	0.19765
2935.62824	0.19828
2934.66384	0.19755
2933.69945	0.19670
2932.73505	0.19678
2931.77065	0.19726
2930.80625	0.19811
2929.84185	0.19947
2928.87746	0.20058
2927.91306	0.20074
2926.94866	0.20074
2925.98426	0.20156
2925.01986	0.20244
2924.05546	0.20271
2923.09107	0.20313
2922.12667	0.20411
2921.16227	0.20540
2920.19787	0.20665
2919.23347	0.20745
2918.26907	0.20784
2917.30468	0.20804
2916.34028	0.20844
2915.37588	0.20968
2914.41148	0.21093
2913.44708	0.21182
2912.48269	0.21369
2911.51829	0.21561
2910.55389	0.21616
2909.58949	0.21633
2908.62509	0.21656
2907.66069	0.21598
2906.69630	0.21509
2905.73190	0.21525
2904.76750	0.21599
2903.80310	0.21632
2902.83870	0.21715
2901.87430	0.21937
2900.90991	0.22161
2899.94551	0.22213
2898.98111	0.22135
2898.01671	0.22107
2897.05231	0.22147
2896.08792	0.22114
2895.12352	0.22031
2894.15912	0.22022
2893.19472	0.22097
2892.23032	0.22225
2891.26592	0.22320
2890.30153	0.22341
2889.33713	0.22413
2888.37273	0.22571
2887.40833	0.22663
2886.44393	0.22650
2885.47953	0.22635
2884.51514	0.22661
2883.55074	0.22719
2882.58634	0.22770
2881.62194	0.22784
2880.65754	0.22776
2879.69315	0.22763
2878.72875	0.22756
2877.76435	0.22762
2876.79995	0.22824
2875.83555	0.22951
2874.87115	0.23034
2873.90676	0.23056
2872.94236	0.23117
2871.97796	0.23216
2871.01356	0.23279
2870.04916	0.23297
2869.08476	0.23326
2868.12037	0.23356
2867.15597	0.23335
2866.19157	0.23325
2865.22717	0.23378
2864.26277	0.23457
2863.29838	0.23515
2862.33398	0.23527
2861.36958	0.23542
2860.40518	0.23573
2859.44078	0.23544
2858.47638	0.23502
2857.51199	0.23557
2856.54759	0.23675
2855.58319	0.23759
2854.61879	0.23719
2853.65439	0.23612
2852.68999	0.23659
2851.72560	0.23821
2850.76120	0.23883
2849.79680	0.23868
2848.83240	0.23865
2847.86800	0.23879
2846.90360	0.23906
2845.93921	0.23954
2844.97481	0.24031
2844.01041	0.24087
2843.04601	0.24134
2842.08161	0.24220
2841.11722	0.24266
2840.15282	0.24277
2839.18842	0.24332
2838.22402	0.24359
2837.25962	0.24342
2836.29522	0.24425
2835.33083	0.24606
2834.36643	0.24759
2833.40203	0.24838
2832.43763	0.24838
2831.47323	0.24814
2830.50883	0.24806
2829.54444	0.24782
2828.58004	0.24792
2827.61564	0.24917
2826.65124	0.25097
2825.68684	0.25222
2824.72245	0.25242
2823.75805	0.25208
2822.79365	0.25218
2821.82925	0.25293
2820.86485	0.25374
2819.90045	0.25426
2818.93606	0.25463
2817.97166	0.25473
2817.00726	0.25451
2816.04286	0.25473
2815.07846	0.25590
2814.11406	0.25704
2813.14967	0.25684
2812.18527	0.25605
2811.22087	0.25662
2810.25647	0.25874
2809.29207	0.26014
2808.32768	0.25928
2807.36328	0.25821
2806.39888	0.25924
2805.43448	0.26141
2804.47008	0.26271
2803.50568	0.26277
2802.54129	0.26274
2801.57689	0.26332
2800.61249	0.26380
2799.64809	0.26380
2798.68369	0.26393
2797.71929	0.26436
2796.75490	0.26491
2795.79050	0.26535
2794.82610	0.26541
2793.86170	0.26533
2792.89730	0.26551
2791.93291	0.26592
2790.96851	0.26640
2790.00411	0.26688
2789.03971	0.26745
2788.07531	0.26856
2787.11091	0.26960
2786.14652	0.26924
2785.18212	0.26825
2784.21772	0.26802
2783.25332	0.26848
2782.28892	0.26914
2781.32452	0.26931
2780.36013	0.26891
2779.39573	0.26868
2778.43133	0.26891
2777.46693	0.26952
2776.50253	0.27021
2775.53814	0.27111
2774.57374	0.27239
2773.60934	0.27301
2772.64494	0.27233
2771.68054	0.27128
2770.71614	0.27090
2769.75175	0.27166
2768.78735	0.27278
2767.82295	0.27302
2766.85855	0.27276
2765.89415	0.27302
2764.92975	0.27338
2763.96536	0.27334
2763.00096	0.27325
2762.03656	0.27318
2761.07216	0.27318
2760.10776	0.27335
2759.14337	0.27355
2758.17897	0.27402
2757.21457	0.27469
2756.25017	0.27446
2755.28577	0.27342
2754.32137	0.27268
2753.35698	0.27236
2752.39258	0.27283
2751.42818	0.27398
2750.46378	0.27435
2749.49938	0.27380
2748.53498	0.27350
2747.57059	0.27385
2746.60619	0.27437
2745.64179	0.27433
2744.67739	0.27383
2743.71299	0.27315
2742.74860	0.27204
2741.78420	0.27081
2740.81980	0.27014
2739.85540	0.27023
2738.89100	0.27067
2737.92660	0.27044
2736.96221	0.26965
2735.99781	0.26942
2735.03341	0.26949
2734.06901	0.26893
2733.10461	0.26801
2732.14021	0.26784
2731.17582	0.26817
2730.21142	0.26776
2729.24702	0.26713
2728.28262	0.26648
2727.31822	0.26527
2726.35382	0.26442
2725.38943	0.26406
2724.42503	0.26397
2723.46063	0.26444
2722.49623	0.26429
2721.53183	0.26298
2720.56744	0.26143
2719.60304	0.26007
2718.63864	0.25923
2717.67424	0.25894
2716.70984	0.25862
2715.74544	0.25826
2714.78105	0.25771
2713.81665	0.25682
2712.85225	0.25588
2711.88785	0.25536
2710.92345	0.25572
2709.95905	0.25634
2708.99466	0.25550
2708.03026	0.25316
2707.06586	0.25158
2706.10146	0.25168
2705.13706	0.25170
2704.17267	0.25072
2703.20827	0.24959
2702.24387	0.24881
2701.27947	0.24815
2700.31507	0.24722
2699.35067	0.24591
2698.38628	0.24491
2697.42188	0.24462
2696.45748	0.24444
2695.49308	0.24354
2694.52868	0.24179
2693.56428	0.24019
2692.59989	0.23922
2691.63549	0.23847
2690.67109	0.23806
2689.70669	0.23794
2688.74229	0.23791
2687.77790	0.23792
2686.81350	0.23689
2685.84910	0.23465
2684.88470	0.23299
2683.92030	0.23243
2682.95590	0.23199
2681.99151	0.23104
2681.02711	0.22960
2680.06271	0.22844
2679.09831	0.22819
2678.13391	0.22827
2677.16951	0.22768
2676.20512	0.22652
2675.24072	0.22562
2674.27632	0.22480
2673.31192	0.22381
2672.34752	0.22293
2671.38313	0.22164
2670.41873	0.22011
2669.45433	0.21938
2668.48993	0.21896
2667.52553	0.21786
2666.56113	0.21634
2665.59674	0.21501
2664.63234	0.21437
2663.66794	0.21417
2662.70354	0.21366
2661.73914	0.21297
2660.77474	0.21244
2659.81035	0.21189
2658.84595	0.21114
2657.88155	0.21030
2656.91715	0.20956
2655.95275	0.20888
2654.98836	0.20834
2654.02396	0.20793
2653.05956	0.20723
2652.09516	0.20591
2651.13076	0.20435
2650.16636	0.20319
2649.20197	0.20209
2648.23757	0.20111
2647.27317	0.20041
2646.30877	0.19938
2645.34437	0.19864
2644.37997	0.19880
2643.41558	0.19902
2642.45118	0.19812
2641.48678	0.19574
2640.52238	0.19325
2639.55798	0.19185
2638.59359	0.19117
2637.62919	0.19074
2636.66479	0.19040
2635.70039	0.18976
2634.73599	0.18870
2633.77159	0.18774
2632.80720	0.18678
2631.84280	0.18564
2630.87840	0.18491
2629.91400	0.18403
2628.94960	0.18244
2627.98520	0.18153
2627.02081	0.18169
2626.05641	0.18158
2625.09201	0.18090
2624.12761	0.18013
2623.16321	0.17898
2622.19882	0.17747
2621.23442	0.17615
2620.27002	0.17527
2619.30562	0.17475
2618.34122	0.17440
2617.37682	0.17393
2616.41243	0.17296
2615.44803	0.17197
2614.48363	0.17192
2613.51923	0.17208
2612.55483	0.17128
2611.59043	0.17006
2610.62604	0.16933
2609.66164	0.16885
2608.69724	0.16781
2607.73284	0.16630
2606.76844	0.16558
2605.80404	0.16590
2604.83965	0.16550
2603.87525	0.16416
2602.91085	0.16344
2601.94645	0.16312
2600.98205	0.16255
2600.01766	0.16196
2599.05326	0.16156
2598.08886	0.16121
2597.12446	0.16017
2596.16006	0.15836
2595.19566	0.15746
2594.23127	0.15824
2593.26687	0.15919
2592.30247	0.15910
2591.33807	0.15778
2590.37367	0.15576
2589.40927	0.15492
2588.44488	0.15595
2587.48048	0.15669
2586.51608	0.15601
2585.55168	0.15572
2584.58728	0.15662
2583.62289	0.15688
2582.65849	0.15627
2581.69409	0.15640
2580.72969	0.15673
2579.76529	0.15564
2578.80089	0.15357
2577.83650	0.15183
2576.87210	0.15110
2575.90770	0.15150
2574.94330	0.15244
2573.97890	0.15300
2573.01450	0.15329
2572.05011	0.15344
2571.08571	0.15281
2570.12131	0.15272
2569.15691	0.15422
2568.19251	0.15522
2567.22812	0.15487
2566.26372	0.15417
2565.29932	0.15375
2564.33492	0.15388
2563.37052	0.15404
2562.40612	0.15436
2561.44173	0.15551
2560.47733	0.15654
2559.51293	0.15648
2558.54853	0.15589
2557.58413	0.15539
2556.61973	0.15555
2555.65534	0.15697
2554.69094	0.15881
2553.72654	0.15948
2552.76214	0.15881
2551.79774	0.15806
2550.83335	0.15799
2549.86895	0.15841
2548.90455	0.15970
2547.94015	0.16157
2546.97575	0.16246
2546.01135	0.16312
2545.04696	0.16536
2544.08256	0.16755
2543.11816	0.16732
2542.15376	0.16594
2541.18936	0.16589
2540.22496	0.16659
2539.26057	0.16676
2538.29617	0.16705
2537.33177	0.16808
2536.36737	0.16861
2535.40297	0.16780
2534.43858	0.16755
2533.47418	0.16889
2532.50978	0.17045
2531.54538	0.17231
2530.58098	0.17455
2529.61658	0.17620
2528.65219	0.17696
2527.68779	0.17655
2526.72339	0.17539
2525.75899	0.17502
2524.79459	0.17620
2523.83019	0.17781
2522.86580	0.17860
2521.90140	0.17924
2520.93700	0.18083
2519.97260	0.18256
2519.00820	0.18307
2518.04381	0.18317
2517.07941	0.18359
2516.11501	0.18337
2515.15061	0.18267
2514.18621	0.18218
2513.22181	0.18227
2512.25742	0.18401
2511.29302	0.18677
2510.32862	0.18801
2509.36422	0.18759
2508.39982	0.18780
2507.43542	0.18920
2506.47103	0.19031
2505.50663	0.19098
2504.54223	0.19244
2503.57783	0.19444
2502.61343	0.19594
2501.64904	0.19730
2500.68464	0.19830
2499.72024	0.19821
2498.75584	0.19864
2497.79144	0.20067
2496.82704	0.20167
2495.86265	0.20130
2494.89825	0.20311
2493.93385	0.20655
2492.96945	0.20775
2492.00505	0.20672
2491.04065	0.20622
2490.07626	0.20803
2489.11186	0.21120
2488.14746	0.21321
2487.18306	0.21400
2486.21866	0.21540
2485.25426	0.21762
2484.28987	0.21904
2483.32547	0.21851
2482.36107	0.21811
2481.39667	0.21986
2480.43227	0.22201
2479.46788	0.22313
2478.50348	0.22378
2477.53908	0.22392
2476.57468	0.22316
2475.61028	0.22267
2474.64588	0.22428
2473.68149	0.22717
2472.71709	0.22955
2471.75269	0.23098
2470.78829	0.23133
2469.82389	0.23117
2468.85949	0.23161
2467.89510	0.23280
2466.93070	0.23396
2465.96630	0.23483
2465.00190	0.23620
2464.03750	0.23842
2463.07311	0.24076
2462.10871	0.24202
2461.14431	0.24199
2460.17991	0.24222
2459.21551	0.24384
2458.25111	0.24537
2457.28672	0.24537
2456.32232	0.24535
2455.35792	0.24642
2454.39352	0.24789
2453.42912	0.24941
2452.46472	0.25037
2451.50033	0.25073
2450.53593	0.25122
2449.57153	0.25133
2448.60713	0.25095
2447.64273	0.25164
2446.67834	0.25373
2445.71394	0.25562
2444.74954	0.25679
2443.78514	0.25779
2442.82074	0.25913
2441.85634	0.26142
2440.89195	0.26435
2439.92755	0.26653
2438.96315	0.26752
2437.99875	0.26852
2437.03435	0.26993
2436.06995	0.27102
2435.10556	0.27193
2434.14116	0.27293
2433.17676	0.27374
2432.21236	0.27445
2431.24796	0.27547
2430.28357	0.27721
2429.31917	0.27935
2428.35477	0.28053
2427.39037	0.28088
2426.42597	0.28187
2425.46157	0.28334
2424.49718	0.28443
2423.53278	0.28503
2422.56838	0.28577
2421.60398	0.28749
2420.63958	0.28940
2419.67518	0.29056
2418.71079	0.29139
2417.74639	0.29178
2416.78199	0.29225
2415.81759	0.29401
2414.85319	0.29629
2413.88880	0.29771
2412.92440	0.29871
2411.96000	0.30007
2410.99560	0.30184
2410.03120	0.30359
2409.06680	0.30406
2408.10241	0.30320
2407.13801	0.30294
2406.17361	0.30421
2405.20921	0.30611
2404.24481	0.30827
2403.28041	0.31044
2402.31602	0.31169
2401.35162	0.31210
2400.38722	0.31246
2399.42282	0.31332
2398.45842	0.31478
2397.49403	0.31588
2396.52963	0.31632
2395.56523	0.31712
2394.60083	0.31846
2393.63643	0.31944
2392.67203	0.32027
2391.70764	0.32195
2390.74324	0.32432
2389.77884	0.32681
2388.81444	0.32851
2387.85004	0.32878
2386.88564	0.32857
2385.92125	0.32823
2384.95685	0.32786
2383.99245	0.32794
2383.02805	0.32814
2382.06365	0.32854
2381.09925	0.32882
2380.13486	0.32841
2379.17046	0.32852
2378.20606	0.32926
2377.24166	0.32899
2376.27726	0.32706
2375.31287	0.32451
2374.34847	0.32260
2373.38407	0.32037
2372.41967	0.31745
2371.45527	0.31733
2370.49087	0.32045
2369.52648	0.32145
2368.56208	0.31838
2367.59768	0.31291
2366.63328	0.30741
2365.66888	0.30748
2364.70448	0.31441
2363.74009	0.32236
2362.77569	0.32452
2361.81129	0.32079
2360.84689	0.31995
2359.88249	0.32439
2358.91810	0.32946
2357.95370	0.33656
2356.98930	0.34549
2356.02490	0.35125
2355.06050	0.35652
2354.09610	0.36483
2353.13171	0.37226
2352.16731	0.37737
2351.20291	0.38274
2350.23851	0.38616
2349.27411	0.38207
2348.30971	0.37180
2347.34532	0.36174
2346.38092	0.35533
2345.41652	0.35196
2344.45212	0.35064
2343.48772	0.34943
2342.52333	0.34827
2341.55893	0.34671
2340.59453	0.34430
2339.63013	0.34459
2338.66573	0.34865
2337.70133	0.35222
2336.73694	0.35273
2335.77254	0.35141
2334.80814	0.35045
2333.84374	0.35036
2332.87934	0.35049
2331.91494	0.35232
2330.95055	0.35718
2329.98615	0.36209
2329.02175	0.36449
2328.05735	0.36794
2327.09295	0.37598
2326.12856	0.38655
2325.16416	0.39671
2324.19976	0.40329
2323.23536	0.40598
2322.27096	0.40903
2321.30656	0.41303
2320.34217	0.41488
2319.37777	0.41411
2318.41337	0.41278
2317.44897	0.41093
2316.48457	0.40876
2315.52017	0.40800
2314.55578	0.40818
2313.59138	0.40731
2312.62698	0.40451
2311.66258	0.40134
2310.69818	0.39910
2309.73379	0.39715
2308.76939	0.39457
2307.80499	0.39029
2306.84059	0.38497
2305.87619	0.38096
2304.91179	0.37972
2303.94740	0.37914
2302.98300	0.37609
2302.01860	0.37273
2301.05420	0.37272
2300.08980	0.37423
2299.12540	0.37386
2298.16101	0.37238
2297.19661	0.37139
2296.23221	0.37043
2295.26781	0.36926
2294.30341	0.36810
2293.33902	0.36728
2292.37462	0.36558
2291.41022	0.36217
2290.44582	0.35929
2289.48142	0.35903
2288.51702	0.36086
2287.55263	0.36155
2286.58823	0.35896
2285.62383	0.35546
2284.65943	0.35486
2283.69503	0.35800
2282.73063	0.36148
2281.76624	0.36213
2280.80184	0.36089
2279.83744	0.35913
2278.87304	0.35617
2277.90864	0.35278
2276.94425	0.34915
2275.97985	0.34421
2275.01545	0.34009
2274.05105	0.33786
2273.08665	0.33603
2272.12225	0.33475
2271.15786	0.33419
2270.19346	0.33341
2269.22906	0.33045
2268.26466	0.32514
2267.30026	0.32009
2266.33586	0.31591
2265.37147	0.31172
2264.40707	0.30823
2263.44267	0.30644
2262.47827	0.30625
2261.51387	0.30600
2260.54947	0.30378
2259.58508	0.30102
2258.62068	0.29967
2257.65628	0.29818
2256.69188	0.29697
2255.72748	0.29784
2254.76309	0.29860
2253.79869	0.29774
2252.83429	0.29587
2251.86989	0.29309
2250.90549	0.29051
2249.94109	0.28872
2248.97670	0.28629
2248.01230	0.28335
2247.04790	0.28234
2246.08350	0.28405
2245.11910	0.28569
2244.15470	0.28456
2243.19031	0.28207
2242.22591	0.28096
2241.26151	0.28095
2240.29711	0.28089
2239.33271	0.27960
2238.36832	0.27596
2237.40392	0.27154
2236.43952	0.26957
2235.47512	0.27131
2234.51072	0.27471
2233.54632	0.27655
2232.58193	0.27589
2231.61753	0.27430
2230.65313	0.27317
2229.68873	0.27261
2228.72433	0.27210
2227.75993	0.27017
2226.79554	0.26821
2225.83114	0.26885
2224.86674	0.26966
2223.90234	0.26898
2222.93794	0.26871
2221.97355	0.26793
2221.00915	0.26396
2220.04475	0.25813
2219.08035	0.25514
2218.11595	0.25738
2217.15155	0.26181
2216.18716	0.26240
2215.22276	0.25845
2214.25836	0.25566
2213.29396	0.25525
2212.32956	0.25472
2211.36516	0.25563
2210.40077	0.25863
2209.43637	0.25959
2208.47197	0.25709
2207.50757	0.25406
2206.54317	0.25109
2205.57878	0.24960
2204.61438	0.25332
2203.64998	0.25667
2202.68558	0.25291
2201.72118	0.24969
2200.75678	0.25158
2199.79239	0.25164
2198.82799	0.24855
2197.86359	0.24766
2196.89919	0.25164
2195.93479	0.25546
2194.97039	0.25484
2194.00600	0.25583
2193.04160	0.25936
2192.07720	0.25873
2191.11280	0.25540
2190.14840	0.25249
2189.18401	0.24871
2188.21961	0.24534
2187.25521	0.24290
2186.29081	0.24095
2185.32641	0.24331
2184.36201	0.24862
2183.39762	0.24595
2182.43322	0.23417
2181.46882	0.22702
2180.50442	0.23090
2179.54002	0.23816
2178.57562	0.24026
2177.61123	0.23608
2176.64683	0.22902
2175.68243	0.22147
2174.71803	0.21735
2173.75363	0.22084
2172.78924	0.22811
2171.82484	0.23013
2170.86044	0.22502
2169.89604	0.22021
2168.93164	0.22143
2167.96724	0.22821
2167.00285	0.23467
2166.03845	0.23424
2165.07405	0.23031
2164.10965	0.22806
2163.14525	0.22481
2162.18085	0.22299
2161.21646	0.22572
2160.25206	0.22169
2159.28766	0.20527
2158.32326	0.19126
2157.35886	0.18797
2156.39447	0.18850
2155.43007	0.18995
2154.46567	0.19406
2153.50127	0.19919
2152.53687	0.20407
2151.57247	0.20820
2150.60808	0.20977
2149.64368	0.21059
2148.67928	0.21103
2147.71488	0.20791
2146.75048	0.20501
2145.78608	0.20621
2144.82169	0.20699
2143.85729	0.20706
2142.89289	0.21004
2141.92849	0.21242
2140.96409	0.21150
2139.99969	0.20916
2139.03530	0.20512
2138.07090	0.20054
2137.10650	0.19958
2136.14210	0.20230
2135.17770	0.20326
2134.21331	0.20013
2133.24891	0.19808
2132.28451	0.20125
2131.32011	0.20632
2130.35571	0.20772
2129.39131	0.20557
2128.42692	0.20374
2127.46252	0.20318
2126.49812	0.20390
2125.53372	0.20563
2124.56932	0.20612
2123.60492	0.20600
2122.64053	0.20710
2121.67613	0.20873
2120.71173	0.21021
2119.74733	0.21029
2118.78293	0.20873
2117.81854	0.20708
2116.85414	0.20454
2115.88974	0.20176
2114.92534	0.20115
2113.96094	0.20191
2112.99654	0.20406
2112.03215	0.20765
2111.06775	0.20922
2110.10335	0.20898
2109.13895	0.20993
2108.17455	0.20998
2107.21015	0.20726
2106.24576	0.20414
2105.28136	0.20209
2104.31696	0.20201
2103.35256	0.20359
2102.38816	0.20329
2101.42377	0.19978
2100.45937	0.19590
2099.49497	0.19390
2098.53057	0.19418
2097.56617	0.19574
2096.60177	0.19681
2095.63738	0.19655
2094.67298	0.19482
2093.70858	0.19206
2092.74418	0.19061
2091.77978	0.19238
2090.81538	0.19481
2089.85099	0.19467
2088.88659	0.19319
2087.92219	0.19212
2086.95779	0.19090
2085.99339	0.18923
2085.02900	0.18720
2084.06460	0.18493
2083.10020	0.18448
2082.13580	0.18709
2081.17140	0.18921
2080.20700	0.18870
2079.24261	0.18793
2078.27821	0.18772
2077.31381	0.18701
2076.34941	0.18590
2075.38501	0.18518
2074.42061	0.18486
2073.45622	0.18450
2072.49182	0.18433
2071.52742	0.18463
2070.56302	0.18471
2069.59862	0.18337
2068.63423	0.18165
2067.66983	0.18108
2066.70543	0.18006
2065.74103	0.17883
2064.77663	0.17939
2063.81223	0.17880
2062.84784	0.17396
2061.88344	0.16864
2060.91904	0.16820
2059.95464	0.17139
2058.99024	0.17391
2058.02584	0.17598
2057.06145	0.17896
2056.09705	0.18110
2055.13265	0.18040
2054.16825	0.17760
2053.20385	0.17695
2052.23946	0.18106
2051.27506	0.18416
2050.31066	0.18027
2049.34626	0.17338
2048.38186	0.16715
2047.41746	0.16017
2046.45307	0.15621
2045.48867	0.15806
2044.52427	0.16153
2043.55987	0.16375
2042.59547	0.16434
2041.63107	0.16192
2040.66668	0.15792
2039.70228	0.15654
2038.73788	0.15682
2037.77348	0.15584
2036.80908	0.15432
2035.84469	0.15120
2034.88029	0.14680
2033.91589	0.14449
2032.95149	0.14378
2031.98709	0.14338
2031.02269	0.14145
2030.05830	0.13838
2029.09390	0.14085
2028.12950	0.14568
2027.16510	0.14304
2026.20070	0.14045
2025.23630	0.14613
2024.27191	0.14882
2023.30751	0.14273
2022.34311	0.13748
2021.37871	0.13828
2020.41431	0.14076
2019.44991	0.14111
2018.48552	0.14196
2017.52112	0.14586
2016.55672	0.15067
2015.59232	0.15141
2014.62792	0.14695
2013.66353	0.14378
2012.69913	0.14257
2011.73473	0.13898
2010.77033	0.13637
2009.80593	0.13650
2008.84153	0.13521
2007.87714	0.13083
2006.91274	0.12637
2005.94834	0.12480
2004.98394	0.12539
2004.01954	0.12770
2003.05514	0.13102
2002.09075	0.13401
2001.12635	0.13810
2000.16195	0.14119
1999.19755	0.13819
1998.23315	0.13317
1997.26876	0.13417
1996.30436	0.13884
1995.33996	0.14145
1994.37556	0.14217
1993.41116	0.14142
1992.44676	0.13995
1991.48237	0.13951
1990.51797	0.13825
1989.55357	0.13568
1988.58917	0.13405
1987.62477	0.13487
1986.66037	0.13806
1985.69598	0.14016
1984.73158	0.13859
1983.76718	0.13641
1982.80278	0.13725
1981.83838	0.14029
1980.87399	0.14343
1979.90959	0.14595
1978.94519	0.14358
1977.98079	0.13399
1977.01639	0.12569
1976.05199	0.12337
1975.08760	0.12290
1974.12320	0.12280
1973.15880	0.12442
1972.19440	0.13004
1971.23000	0.13582
1970.26560	0.13286
1969.30121	0.12394
1968.33681	0.11800
1967.37241	0.11670
1966.40801	0.11952
1965.44361	0.12502
1964.47922	0.12786
1963.51482	0.12629
1962.55042	0.12665
1961.58602	0.13028
1960.62162	0.12977
1959.65722	0.12472
1958.69283	0.12069
1957.72843	0.11997
1956.76403	0.12347
1955.79963	0.12862
1954.83523	0.13124
1953.87083	0.13252
1952.90644	0.13468
1951.94204	0.13592
1950.97764	0.13586
1950.01324	0.13603
1949.04884	0.13514
1948.08445	0.13306
1947.12005	0.13177
1946.15565	0.13138
1945.19125	0.13120
1944.22685	0.13041
1943.26245	0.13091
1942.29806	0.13455
1941.33366	0.13658
1940.36926	0.13588
1939.40486	0.13635
1938.44046	0.13813
1937.47606	0.13917
1936.51167	0.13827
1935.54727	0.13667
1934.58287	0.13709
1933.61847	0.13840
1932.65407	0.13766
1931.68968	0.13562
1930.72528	0.13466
1929.76088	0.13539
1928.79648	0.13753
1927.83208	0.14052
1926.86768	0.14308
1925.90329	0.14451
1924.93889	0.14528
1923.97449	0.14541
1923.01009	0.14387
1922.04569	0.14050
1921.08129	0.13822
1920.11690	0.13933
1919.15250	0.14269
1918.18810	0.14615
1917.22370	0.14698
1916.25930	0.14503
1915.29490	0.14333
1914.33051	0.14301
1913.36611	0.14319
1912.40171	0.14374
1911.43731	0.14487
1910.47291	0.14546
1909.50852	0.14443
1908.54412	0.14319
1907.57972	0.14348
1906.61532	0.14470
1905.65092	0.14573
1904.68652	0.14670
1903.72213	0.14702
1902.75773	0.14581
1901.79333	0.14491
1900.82893	0.14607
1899.86453	0.14776
1898.90013	0.14780
1897.93574	0.14667
1896.97134	0.14635
1896.00694	0.14666
1895.04254	0.14678
1894.07814	0.14791
1893.11375	0.14999
1892.14935	0.15031
1891.18495	0.14810
1890.22055	0.14777
1889.25615	0.15186
1888.29175	0.15443
1887.32736	0.15247
1886.36296	0.14945
1885.39856	0.14849
1884.43416	0.14995
1883.46976	0.15113
1882.50536	0.15079
1881.54097	0.15099
1880.57657	0.15183
1879.61217	0.15247
1878.64777	0.15297
1877.68337	0.15219
1876.71898	0.15042
1875.75458	0.15043
1874.79018	0.15289
1873.82578	0.15476
1872.86138	0.15342
1871.89698	0.14983
1870.93259	0.14681
1869.96819	0.14707
1869.00379	0.15057
1868.03939	0.15360
1867.07499	0.15515
1866.11059	0.15593
1865.14620	0.15607
1864.18180	0.15566
1863.21740	0.15438
1862.25300	0.15288
1861.28860	0.15230
1860.32421	0.15286
1859.35981	0.15410
1858.39541	0.15465
1857.43101	0.15379
1856.46661	0.15327
1855.50221	0.15429
1854.53782	0.15550
1853.57342	0.15607
1852.60902	0.15698
1851.64462	0.15849
1850.68022	0.15878
1849.71582	0.15754
1848.75143	0.15717
1847.78703	0.15826
1846.82263	0.15801
1845.85823	0.15547
1844.89383	0.15543
1843.92944	0.16001
1842.96504	0.16124
1842.00064	0.15935
1841.03624	0.15895
1840.07184	0.16018
1839.10744	0.16145
1838.14305	0.16233
1837.17865	0.16317
1836.21425	0.16431
1835.24985	0.16526
1834.28545	0.16545
1833.32105	0.16554
1832.35666	0.16561
1831.39226	0.16530
1830.42786	0.16752
1829.46346	0.17206
1828.49906	0.17247
1827.53467	0.16962
1826.57027	0.16852
1825.60587	0.17150
1824.64147	0.17445
1823.67707	0.17380
1822.71267	0.17313
1821.74828	0.17377
1820.78388	0.17345
1819.81948	0.17210
1818.85508	0.17113
1817.89068	0.17120
1816.92628	0.17229
1815.96189	0.17382
1814.99749	0.17511
1814.03309	0.17604
1813.06869	0.17665
1812.10429	0.17721
1811.13990	0.17910
1810.17550	0.18108
1809.21110	0.18087
1808.24670	0.18051
1807.28230	0.18107
1806.31790	0.18125
1805.35351	0.18156
1804.38911	0.18213
1803.42471	0.18267
1802.46031	0.18446
1801.49591	0.18651
1800.53151	0.18766
1799.56712	0.18917
1798.60272	0.18944
1797.63832	0.18755
1796.67392	0.18686
1795.70952	0.18815
1794.74512	0.18734
1793.78073	0.18528
1792.81633	0.18810
1791.85193	0.19359
1790.88753	0.19438
1789.92313	0.19158
1788.95874	0.18832
1787.99434	0.18703
1787.02994	0.18730
1786.06554	0.18841
1785.10114	0.19178
1784.13674	0.19439
1783.17235	0.19296
1782.20795	0.19074
1781.24355	0.19125
1780.27915	0.19330
1779.31475	0.19375
1778.35035	0.19280
1777.38596	0.19163
1776.42156	0.19184
1775.45716	0.19311
1774.49276	0.19196
1773.52836	0.19136
1772.56397	0.19770
1771.59957	0.20382
1770.63517	0.20142
1769.67077	0.19627
1768.70637	0.19592
1767.74197	0.20042
1766.77758	0.20125
1765.81318	0.19926
1764.84878	0.19863
1763.88438	0.19761
1762.91998	0.19664
1761.95558	0.20014
1760.99119	0.20389
1760.02679	0.20259
1759.06239	0.19987
1758.09799	0.19892
1757.13359	0.20157
1756.16920	0.20506
1755.20480	0.20447
1754.24040	0.20207
1753.27600	0.20023
1752.31160	0.20081
1751.34720	0.20621
1750.38281	0.20964
1749.41841	0.20950
1748.45401	0.21109
1747.48961	0.21164
1746.52521	0.20920
1745.56081	0.20683
1744.59642	0.20667
1743.63202	0.20944
1742.66762	0.21086
1741.70322	0.20763
1740.73882	0.20586
1739.77443	0.21109
1738.81003	0.21460
1737.84563	0.21217
1736.88123	0.20834
1735.91683	0.20443
1734.95243	0.20568
1733.98804	0.21852
1733.02364	0.22416
1732.05924	0.21987
1731.09484	0.21702
1730.13044	0.21890
1729.16604	0.22032
1728.20165	0.21882
1727.23725	0.21785
1726.27285	0.21778
1725.30845	0.21727
1724.34405	0.21727
1723.37966	0.21879
1722.41526	0.22032
1721.45086	0.22027
1720.48646	0.21855
1719.52206	0.21672
1718.55766	0.22154
1717.59327	0.23259
1716.62887	0.23342
1715.66447	0.23004
1714.70007	0.23187
1713.73567	0.23345
1712.77127	0.23114
1711.80688	0.22962
1710.84248	0.23098
1709.87808	0.23337
1708.91368	0.23317
1707.94928	0.23069
1706.98489	0.23108
1706.02049	0.23525
1705.05609	0.23859
1704.09169	0.23973
1703.12729	0.23705
1702.16289	0.22954
1701.19850	0.22600
1700.23410	0.24621
1699.26970	0.25610
1698.30530	0.24677
1697.34090	0.23773
1696.37650	0.24128
1695.41211	0.25451
1694.44771	0.25305
1693.48331	0.24592
1692.51891	0.24273
1691.55451	0.24241
1690.59012	0.24306
1689.62572	0.24410
1688.66132	0.24530
1687.69692	0.24572
1686.73252	0.24187
1685.76812	0.23664
1684.80373	0.24506
1683.83933	0.26420
1682.87493	0.26349
1681.91053	0.25501
1680.94613	0.25080
1679.98173	0.25222
1679.01734	0.25317
1678.05294	0.25074
1677.08854	0.24683
1676.12414	0.24770
1675.15974	0.25862
1674.19534	0.26271
1673.23095	0.25816
1672.26655	0.25685
1671.30215	0.25880
1670.33775	0.25959
1669.37335	0.26502
1668.40896	0.27088
1667.44456	0.26851
1666.48016	0.26459
1665.51576	0.26271
1664.55136	0.26097
1663.58696	0.26205
1662.62257	0.26868
1661.65817	0.27172
1660.69377	0.26875
1659.72937	0.26601
1658.76497	0.26501
1657.80057	0.26480
1656.83618	0.26398
1655.87178	0.26090
1654.90738	0.25630
1653.94298	0.25719
1652.97858	0.27907
1652.01419	0.28795
1651.04979	0.27827
1650.08539	0.26778
1649.12099	0.26253
1648.15659	0.26395
1647.19219	0.26918
1646.22780	0.27505
1645.26340	0.27563
1644.29900	0.27022
1643.33460	0.26566
1642.37020	0.26423
1641.40580	0.26322
1640.44141	0.26191
1639.47701	0.26033
1638.51261	0.25913
1637.54821	0.25882
1636.58381	0.25879
1635.61942	0.26557
1634.65502	0.27154
1633.69062	0.26613
1632.72622	0.26043
1631.76182	0.25900
1630.79742	0.25847
1629.83303	0.25627
1628.86863	0.25476
1627.90423	0.25737
1626.93983	0.25928
1625.97543	0.25605
1625.01103	0.25165
1624.04664	0.25259
1623.08224	0.25840
1622.11784	0.25860
1621.15344	0.25455
1620.18904	0.25141
1619.22465	0.24803
1618.26025	0.24350
1617.29585	0.24521
1616.33145	0.25484
1615.36705	0.25458
1614.40265	0.24855
1613.43826	0.24524
1612.47386	0.24454
1611.50946	0.24422
1610.54506	0.24368
1609.58066	0.24313
1608.61626	0.24211
1607.65187	0.24122
1606.68747	0.24141
1605.72307	0.24126
1604.75867	0.24012
1603.79427	0.23911
1602.82988	0.23871
1601.86548	0.23840
1600.90108	0.23716
1599.93668	0.23517
1598.97228	0.23386
1598.00788	0.23334
1597.04349	0.23263
1596.07909	0.23180
1595.11469	0.23161
1594.15029	0.23163
1593.18589	0.23075
1592.22149	0.22954
1591.25710	0.22857
1590.29270	0.22734
1589.32830	0.22629
1588.36390	0.22552
1587.39950	0.22415
1586.43511	0.22270
1585.47071	0.22196
1584.50631	0.22122
1583.54191	0.21985
1582.57751	0.21800
1581.61311	0.21607
1580.64872	0.21460
1579.68432	0.21315
1578.71992	0.20990
1577.75552	0.20503
1576.79112	0.20558
1575.82672	0.21396
1574.86233	0.21349
1573.89793	0.20705
1572.93353	0.20247
1571.96913	0.19904
1571.00473	0.19603
1570.04034	0.19807
1569.07594	0.20221
1568.11154	0.19917
1567.14714	0.19341
1566.18274	0.18999
1565.21834	0.18998
1564.25395	0.19025
1563.28955	0.18688
1562.32515	0.18099
1561.36075	0.17549
1560.39635	0.17596
1559.43195	0.18727
1558.46756	0.19596
1557.50316	0.19232
1556.53876	0.18232
1555.57436	0.17369
1554.60996	0.17212
1553.64556	0.17325
1552.68117	0.16940
1551.71677	0.16440
1550.75237	0.16304
1549.78797	0.16447
1548.82357	0.16310
1547.85918	0.15888
1546.89478	0.15504
1545.93038	0.15442
1544.96598	0.15657
1544.00158	0.15556
1543.03718	0.15256
1542.07279	0.15264
1541.10839	0.15322
1540.14399	0.15546
1539.17959	0.16071
1538.21519	0.15594
1537.25079	0.14643
1536.28640	0.13908
1535.32200	0.13504
1534.35760	0.13558
1533.39320	0.13986
1532.42880	0.13985
1531.46441	0.13591
1530.50001	0.13195
1529.53561	0.12889
1528.57121	0.12789
1527.60681	0.12766
1526.64241	0.12669
1525.67802	0.12747
1524.71362	0.12724
1523.74922	0.12306
1522.78482	0.12001
1521.82042	0.12352
1520.85602	0.12820
1519.89163	0.12406
1518.92723	0.11636
1517.96283	0.11335
1516.99843	0.11669
1516.03403	0.11702
1515.06964	0.11292
1514.10524	0.10824
1513.14084	0.10558
1512.17644	0.10575
1511.21204	0.10511
1510.24764	0.10394
1509.28325	0.10465
1508.31885	0.10596
1507.35445	0.10872
1506.39005	0.11280
1505.42565	0.10915
1504.46125	0.10179
1503.49686	0.09635
1502.53246	0.09340
1501.56806	0.09139
1500.60366	0.08886
1499.63926	0.08804
1498.67487	0.08995
1497.71047	0.08956
1496.74607	0.08843
1495.78167	0.08927
1494.81727	0.08754
1493.85287	0.08432
1492.88848	0.08197
1491.92408	0.08089
1490.95968	0.08311
1489.99528	0.08677
1489.03088	0.08539
1488.06648	0.08201
1487.10209	0.08058
1486.13769	0.07874
1485.17329	0.07599
1484.20889	0.07439
1483.24449	0.07336
1482.28010	0.07232
1481.31570	0.07177
1480.35130	0.07088
1479.38690	0.06933
1478.42250	0.06779
1477.45810	0.06742
1476.49371	0.06926
1475.52931	0.06988
1474.56491	0.06784
1473.60051	0.06790
1472.63611	0.07119
1471.67171	0.07090
1470.70732	0.06644
1469.74292	0.06249
1468.77852	0.06088
1467.81412	0.06011
1466.84972	0.05872
1465.88533	0.05847
1464.92093	0.06119
1463.95653	0.06180
1462.99213	0.05833
1462.02773	0.05508
1461.06333	0.05323
1460.09894	0.05233
1459.13454	0.05280
1458.17014	0.05481
1457.20574	0.05900
1456.24134	0.06086
1455.27694	0.05718
1454.31255	0.05229
1453.34815	0.04901
1452.38375	0.04796
1451.41935	0.04787
1450.45495	0.04673
1449.49055	0.04504
1448.52616	0.04518
1447.56176	0.04651
1446.59736	0.04587
1445.63296	0.04363
1444.66856	0.04159
1443.70417	0.04047
1442.73977	0.04006
1441.77537	0.03989
1440.81097	0.03957
1439.84657	0.03898
1438.88217	0.03757
1437.91778	0.03659
1436.95338	0.03968
1435.98898	0.04204
1435.02458	0.03865
1434.06018	0.03528
1433.09578	0.03438
1432.13139	0.03393
1431.16699	0.03341
1430.20259	0.03400
1429.23819	0.03423
1428.27379	0.03248
1427.30940	0.03024
1426.34500	0.02934
1425.38060	0.03023
1424.41620	0.03209
1423.45180	0.03269
1422.48740	0.03139
1421.52301	0.02982
1420.55861	0.02974
1419.59421	0.03302
1418.62981	0.03509
1417.66541	0.03271
1416.70101	0.03044
1415.73662	0.02974
1414.77222	0.02939
1413.80782	0.02893
1412.84342	0.02896
1411.87902	0.02934
1410.91463	0.02928
1409.95023	0.02914
1408.98583	0.02926
1408.02143	0.02931
1407.05703	0.02915
1406.09263	0.02954
1405.12824	0.03072
1404.16384	0.03043
1403.19944	0.02842
1402.23504	0.02686
1401.27064	0.02615
1400.30624	0.02640
1399.34185	0.02830
1398.37745	0.02979
1397.41305	0.02933
1396.44865	0.02912
1395.48425	0.03107
1394.51986	0.03339
1393.55546	0.03211
1392.59106	0.02909
1391.62666	0.02734
1390.66226	0.02644
1389.69786	0.02556
1388.73347	0.02559
1387.76907	0.02782
1386.80467	0.02985
1385.84027	0.02952
1384.87587	0.02839
1383.91147	0.02752
1382.94708	0.02719
1381.98268	0.02741
1381.01828	0.02751
1380.05388	0.02767
1379.08948	0.02840
1378.12509	0.02902
1377.16069	0.02883
1376.19629	0.02868
1375.23189	0.02977
1374.26749	0.03142
1373.30309	0.03115
1372.33870	0.02960
1371.37430	0.02943
1370.40990	0.03045
1369.44550	0.03164
1368.48110	0.03292
1367.51670	0.03335
1366.55231	0.03313
1365.58791	0.03345
1364.62351	0.03461
1363.65911	0.03701
1362.69471	0.03960
1361.73032	0.04064
1360.76592	0.04095
1359.80152	0.04145
1358.83712	0.04253
1357.87272	0.04443
1356.90832	0.04657
1355.94393	0.04844
1354.97953	0.05006
1354.01513	0.05144
1353.05073	0.05309
1352.08633	0.05559
1351.12193	0.05828
1350.15754	0.06046
1349.19314	0.06262
1348.22874	0.06494
1347.26434	0.06720
1346.29994	0.06971
1345.33555	0.07272
1344.37115	0.07560
1343.40675	0.07820
1342.44235	0.08120
1341.47795	0.08477
1340.51355	0.08882
1339.54916	0.09350
1338.58476	0.09861
1337.62036	0.10319
1336.65596	0.10724
1335.69156	0.11134
1334.72716	0.11546
1333.76277	0.12003
1332.79837	0.12545
1331.83397	0.13171
1330.86957	0.13856
1329.90517	0.14545
1328.94077	0.15259
1327.97638	0.16071
1327.01198	0.17034
1326.04758	0.18127
1325.08318	0.19313
1324.11878	0.20566
1323.15439	0.21821
1322.18999	0.23060
1321.22559	0.24339
1320.26119	0.25704
1319.29679	0.27181
1318.33239	0.28755
1317.36800	0.30397
1316.40360	0.32074
1315.43920	0.33743
1314.47480	0.35442
1313.51040	0.37248
1312.54600	0.39088
1311.58161	0.40791
1310.61721	0.42291
1309.65281	0.43694
1308.68841	0.45078
1307.72401	0.46445
1306.75962	0.47769
1305.79522	0.48990
1304.83082	0.50081
1303.86642	0.51044
1302.90202	0.51912
1301.93762	0.52720
1300.97323	0.53436
1300.00883	0.54085
1299.04443	0.54794
1298.08003	0.55590
1297.11563	0.56389
1296.15123	0.57216
1295.18684	0.58096
1294.22244	0.58979
1293.25804	0.59853
1292.29364	0.60719
1291.32924	0.61573
1290.36485	0.62409
1289.40045	0.63221
1288.43605	0.64007
1287.47165	0.64760
1286.50725	0.65393
1285.54285	0.65837
1284.57846	0.66153
1283.61406	0.66389
1282.64966	0.66544
1281.68526	0.66550
1280.72086	0.66335
1279.75646	0.65967
1278.79207	0.65512
1277.82767	0.64919
1276.86327	0.64146
1275.89887	0.63240
1274.93447	0.62239
1273.97008	0.61094
1273.00568	0.59800
1272.04128	0.58442
1271.07688	0.57013
1270.11248	0.55460
1269.14808	0.53859
1268.18369	0.52328
1267.21929	0.50886
1266.25489	0.49452
1265.29049	0.47976
1264.32609	0.46544
1263.36169	0.45240
1262.39730	0.44103
1261.43290	0.43132
1260.46850	0.42269
1259.50410	0.41452
1258.53970	0.40679
1257.57531	0.40055
1256.61091	0.39616
1255.64651	0.39284
1254.68211	0.39052
1253.71771	0.38954
1252.75331	0.38978
1251.78892	0.39154
1250.82452	0.39458
1249.86012	0.39733
1248.89572	0.39981
1247.93132	0.40343
1246.96692	0.40771
1246.00253	0.41150
1245.03813	0.41490
1244.07373	0.41855
1243.10933	0.42350
1242.14493	0.42992
1241.18054	0.43608
1240.21614	0.44078
1239.25174	0.44490
1238.28734	0.44955
1237.32294	0.45443
1236.35854	0.45889
1235.39415	0.46295
1234.42975	0.46697
1233.46535	0.47048
1232.50095	0.47242
1231.53655	0.47226
1230.57215	0.46940
1229.60776	0.46253
1228.64336	0.45115
1227.67896	0.43643
1226.71456	0.41974
1225.75016	0.40194
1224.78577	0.38430
1223.82137	0.36798
1222.85697	0.35373
1221.89257	0.34184
1220.92817	0.33213
1219.96377	0.32493
1218.99938	0.32094
1218.03498	0.31964
1217.07058	0.31954
1216.10618	0.31992
1215.14178	0.32062
1214.17738	0.32068
1213.21299	0.31945
1212.24859	0.31710
1211.28419	0.31324
1210.31979	0.30826
1209.35539	0.30451
1208.39099	0.30345
1207.42660	0.30431
1206.46220	0.30578
1205.49780	0.30769
1204.53340	0.31097
1203.56900	0.31580
1202.60461	0.32148
1201.64021	0.32774
1200.67581	0.33456
1199.71141	0.34195
1198.74701	0.35053
1197.78261	0.36066
1196.81822	0.37123
1195.85382	0.38080
1194.88942	0.38999
1193.92502	0.40048
1192.96062	0.41259
1191.99622	0.42562
1191.03183	0.43898
1190.06743	0.45250
1189.10303	0.46645
1188.13863	0.48141
1187.17423	0.49801
1186.20984	0.51525
1185.24544	0.53161
1184.28104	0.54700
1183.31664	0.56150
1182.35224	0.57543
1181.38784	0.58967
1180.42345	0.60388
1179.45905	0.61707
1178.49465	0.62927
1177.53025	0.64079
1176.56585	0.65193
1175.60145	0.66358
1174.63706	0.67589
1173.67266	0.68796
1172.70826	0.69940
1171.74386	0.71059
1170.77946	0.72173
1169.81507	0.73262
1168.85067	0.74369
1167.88627	0.75596
1166.92187	0.76981
1165.95747	0.78446
1164.99307	0.79761
1164.02868	0.80662
1163.06428	0.81184
1162.09988	0.81700
1161.13548	0.82487
1160.17108	0.83522
1159.20668	0.84500
1158.24229	0.84843
1157.27789	0.84115
1156.31349	0.82368
1155.34909	0.79981
1154.38469	0.77377
1153.42030	0.74833
1152.45590	0.72481
1151.49150	0.70448
1150.52710	0.68741
1149.56270	0.67330
1148.59830	0.66361
1147.63391	0.65988
1146.66951	0.66281
1145.70511	0.67166
1144.74071	0.68293
1143.77631	0.69288
1142.81191	0.69971
1141.84752	0.70267
1140.88312	0.70228
1139.91872	0.70045
1138.95432	0.69923
1137.98992	0.69988
1137.02553	0.70259
1136.06113	0.70689
1135.09673	0.71211
1134.13233	0.71779
1133.16793	0.72388
1132.20353	0.72993
1131.23914	0.73521
1130.27474	0.74011
1129.31034	0.74505
1128.34594	0.74967
1127.38154	0.75351
1126.41714	0.75577
1125.45275	0.75629
1124.48835	0.75565
1123.52395	0.75405
1122.55955	0.75189
1121.59515	0.74916
1120.63076	0.74554
1119.66636	0.74158
1118.70196	0.73736
1117.73756	0.73238
1116.77316	0.72718
1115.80876	0.72229
1114.84437	0.71707
1113.87997	0.71165
1112.91557	0.70753
1111.95117	0.70518
1110.98677	0.70338
1110.02237	0.70130
1109.05798	0.69975
1108.09358	0.69966
1107.12918	0.70084
1106.16478	0.70303
1105.20038	0.70732
1104.23598	0.71580
1103.27159	0.72912
1102.30719	0.74514
1101.34279	0.76172
1100.37839	0.77835
1099.41399	0.79245
1098.44960	0.79834
1097.48520	0.79481
1096.52080	0.78890
1095.55640	0.78738
1094.59200	0.78910
1093.62760	0.78899
1092.66321	0.78578
1091.69881	0.78268
1090.73441	0.78292
1089.77001	0.78735
1088.80561	0.79289
1087.84121	0.79393
1086.87682	0.78840
1085.91242	0.77898
1084.94802	0.76973
1083.98362	0.76365
1083.01922	0.76057
1082.05483	0.75785
1081.09043	0.75437
1080.12603	0.75228
1079.16163	0.75376
1078.19723	0.75769
1077.23283	0.76210
1076.26844	0.76751
1075.30404	0.77507
1074.33964	0.78390
1073.37524	0.79288
1072.41084	0.80309
1071.44644	0.81623
1070.48205	0.83158
1069.51765	0.84779
1068.55325	0.86490
1067.58885	0.88228
1066.62445	0.89795
1065.66006	0.91188
1064.69566	0.92741
1063.73126	0.94692
1062.76686	0.97029
1061.80246	0.99691
1060.83806	1.02606
1059.87367	1.05737
1058.90927	1.08896
1057.94487	1.11625
1056.98047	1.13543
1056.01607	1.14633
1055.05167	1.15200
1054.08728	1.15675
1053.12288	1.16399
1052.15848	1.17510
1051.19408	1.18903
1050.22968	1.20321
1049.26529	1.21480
1048.30089	1.22191
1047.33649	1.22501
1046.37209	1.22661
1045.40769	1.22903
1044.44329	1.23347
1043.47890	1.23859
1042.51450	1.24117
1041.55010	1.23947
1040.58570	1.23332
1039.62130	1.22365
1038.65690	1.21198
1037.69251	1.19867
1036.72811	1.18377
1035.76371	1.16814
1034.79931	1.15268
1033.83491	1.13778
1032.87052	1.12254
1031.90612	1.10587
1030.94172	1.08859
1029.97732	1.07200
1029.01292	1.05637
1028.04852	1.04100
1027.08413	1.02409
1026.11973	1.00566
1025.15533	0.98803
1024.19093	0.97201
1023.22653	0.95748
1022.26213	0.94432
1021.29774	0.93165
1020.33334	0.91818
1019.36894	0.90382
1018.40454	0.89047
1017.44014	0.87906
1016.47575	0.86922
1015.51135	0.86117
1014.54695	0.85431
1013.58255	0.84815
1012.61815	0.84362
1011.65375	0.84078
1010.68936	0.83886
1009.72496	0.83822
1008.76056	0.83951
1007.79616	0.84293
1006.83176	0.84867
1005.86736	0.85652
1004.90297	0.86550
1003.93857	0.87490
1002.97417	0.88530
1002.00977	0.89695
1001.04537	0.90924
1000.08098	0.92262
999.11658	0.93760
998.15218	0.95371
997.18778	0.97087
996.22338	0.98912
995.25898	1.00707
994.29459	1.02383
993.33019	1.04022
992.36579	1.05649
991.40139	1.07187
990.43699	1.08586
989.47259	1.09894
988.50820	1.11198
987.54380	1.12425
986.57940	1.13409
985.61500	1.14133
984.65060	1.14728
983.68620	1.15297
982.72181	1.15817
981.75741	1.16147
980.79301	1.16154
979.82861	1.15868
978.86421	1.15471
977.89982	1.15061
976.93542	1.14541
975.97102	1.13835
975.00662	1.12950
974.04222	1.11931
973.07782	1.10861
972.11343	1.09809
971.14903	1.08773
970.18463	1.07633
969.22023	1.06271
968.25583	1.04766
967.29143	1.03310
966.32704	1.01880
965.36264	1.00291
964.39824	0.98563
963.43384	0.96865
962.46944	0.95216
961.50505	0.93592
960.54065	0.92053
959.57625	0.90607
958.61185	0.89232
957.64745	0.87961
956.68305	0.86817
955.71866	0.85829
954.75426	0.85121
953.78986	0.84810
952.82546	0.84780
951.86106	0.84848
950.89666	0.85141
949.93227	0.85887
948.96787	0.87042
948.00347	0.88498
947.03907	0.90292
946.07467	0.92479
945.11028	0.95053
944.14588	0.97881
943.18148	1.00808
942.21708	1.03928
941.25268	1.07380
940.28828	1.11085
939.32389	1.14941
938.35949	1.18912
937.39509	1.22913
936.43069	1.26858
935.46629	1.30717
934.50189	1.34445
933.53750	1.38018
932.57310	1.41450
931.60870	1.44650
930.64430	1.47486
929.67990	1.49946
928.71551	1.52028
927.75111	1.53699
926.78671	1.54901
925.82231	1.55549
924.85791	1.55705
923.89351	1.55563
922.92912	1.55128
921.96472	1.54229
921.00032	1.52950
920.03592	1.51555
919.07152	1.50038
918.10712	1.48330
917.14273	1.46495
916.17833	1.44575
915.21393	1.42600
914.24953	1.40592
913.28513	1.38584
912.32074	1.36636
911.35634	1.34784
910.39194	1.33065
909.42754	1.31492
908.46314	1.30054
907.49874	1.28729
906.53435	1.27504
905.56995	1.26318
904.60555	1.25054
903.64115	1.23756
902.67675	1.22509
901.71235	1.21235
900.74796	1.19899
899.78356	1.18532
898.81916	1.17103
897.85476	1.15507
896.89036	1.13660
895.92597	1.11692
894.96157	1.09782
893.99717	1.07849
893.03277	1.05837
892.06837	1.03939
891.10397	1.02136
890.13958	1.00205
889.17518	0.98265
888.21078	0.96600
887.24638	0.95177
886.28198	0.93872
885.31758	0.92769
884.35319	0.91953
883.38879	0.91489
882.42439	0.91618
881.45999	0.92652
880.49559	0.94835
879.53120	0.98196
878.56680	1.02535
877.60240	1.07685
876.63800	1.13347
875.67360	1.18839
874.70920	1.23513
873.74481	1.27098
872.78041	1.29519
871.81601	1.30834
870.85161	1.31247
869.88721	1.30918
868.92281	1.30054
867.95842	1.29015
866.99402	1.28026
866.02962	1.26978
865.06522	1.25672
864.10082	1.24153
863.13642	1.22700
862.17203	1.21502
861.20763	1.20485
860.24323	1.19487
859.27883	1.18451
858.31443	1.17325
857.35004	1.16142
856.38564	1.15044
855.42124	1.14012
854.45684	1.13020
853.49244	1.12104
852.52804	1.11165
851.56365	1.10195
850.59925	1.09213
849.63485	1.08144
848.67045	1.07159
847.70605	1.06467
846.74165	1.05917
845.77726	1.05289
844.81286	1.04576
843.84846	1.03902
842.88406	1.03486
841.91966	1.03323
840.95527	1.03050
839.99087	1.02615
839.02647	1.02375
838.06207	1.02385
837.09767	1.02382
836.13327	1.02256
835.16888	1.02146
834.20448	1.02269
833.24008	1.02648
832.27568	1.03087
831.31128	1.03457
830.34688	1.03841
829.38249	1.04426
828.41809	1.05327
827.45369	1.06559
826.48929	1.07933
825.52489	1.09108
824.56050	1.09922
823.59610	1.10471
822.63170	1.10987
821.66730	1.11709
820.70290	1.12732
819.73850	1.13930
818.77411	1.15045
817.80971	1.15874
816.84531	1.16300
815.88091	1.16379
814.91651	1.16270
813.95211	1.15859
812.98772	1.15089
812.02332	1.14336
811.05892	1.13688
810.09452	1.12937
809.13012	1.12326
808.16573	1.11969
807.20133	1.11443
806.23693	1.10663
805.27253	1.09858
804.30813	1.08900
803.34373	1.07459
802.37934	1.05541
801.41494	1.03503
800.45054	1.01520
799.48614	0.99497
798.52174	0.97479
797.55734	0.95643
796.59295	0.93992
795.62855	0.92443
794.66415	0.91055
793.69975	0.89796
792.73535	0.88466
791.77096	0.87069
790.80656	0.85694
789.84216	0.84358
788.87776	0.83202
787.91336	0.82264
786.94896	0.81310
785.98457	0.80233
785.02017	0.79182
784.05577	0.78186
783.09137	0.77132
782.12697	0.76069
781.16257	0.75126
780.19818	0.74291
779.23378	0.73426
778.26938	0.72446
777.30498	0.71482
776.34058	0.70703
775.37619	0.70026
774.41179	0.69245
773.44739	0.68354
772.48299	0.67549
771.51859	0.66851
770.55419	0.66065
769.58980	0.65192
768.62540	0.64355
767.66100	0.63578
766.69660	0.62928
765.73220	0.62349
764.76780	0.61638
763.80341	0.60849
762.83901	0.60198
761.87461	0.59628
760.91021	0.58878
759.94581	0.57952
758.98142	0.57100
758.01702	0.56432
757.05262	0.55920
756.08822	0.55456
755.12382	0.54899
754.15942	0.54275
753.19503	0.53677
752.23063	0.53127
751.26623	0.52623
750.30183	0.52155
749.33743	0.51681
748.37303	0.51172
747.40864	0.50678
746.44424	0.50195
745.47984	0.49642
744.51544	0.49028
743.55104	0.48425
742.58664	0.47956
741.62225	0.47635
740.65785	0.47193
739.69345	0.46577
738.72905	0.46086
737.76465	0.45732
736.80026	0.45281
735.83586	0.44737
734.87146	0.44267
733.90706	0.43963
732.94266	0.43695
731.97826	0.43274
731.01387	0.42828
730.04947	0.42519
729.08507	0.42211
728.12067	0.41802
727.15627	0.41367
726.19187	0.41067
725.22748	0.40928
724.26308	0.40693
723.29868	0.40233
722.33428	0.39690
721.36988	0.39229
720.40549	0.38947
719.44109	0.38772
718.47669	0.38561
717.51229	0.38302
716.54789	0.38037
715.58349	0.37812
714.61910	0.37618
713.65470	0.37314
712.69030	0.36865
711.72590	0.36415
710.76150	0.35954
709.79710	0.35462
708.83271	0.35090
707.86831	0.34754
706.90391	0.34250
705.93951	0.33704
704.97511	0.33334
704.01072	0.33099
703.04632	0.32778
702.08192	0.32271
701.11752	0.31729
700.15312	0.31210
699.18872	0.30626
698.22433	0.30093
697.25993	0.29730
696.29553	0.29377
695.33113	0.28898
694.36673	0.28427
693.40233	0.28050
692.43794	0.27613
691.47354	0.27120
690.50914	0.26687
689.54474	0.26188
688.58034	0.25582
687.61595	0.25127
686.65155	0.24864
685.68715	0.24520
684.72275	0.24107
683.75835	0.23903
682.79395	0.23783
681.82956	0.23355
680.86516	0.22678
679.90076	0.22157
678.93636	0.21996
677.97196	0.22035
677.00756	0.21849
676.04317	0.21409
675.07877	0.21021
674.11437	0.20599
673.14997	0.20096
672.18557	0.19704
671.22118	0.19337
670.25678	0.18702
669.29238	0.17856
668.32798	0.18316
667.36358	0.19682
666.39918	0.19193
665.43479	0.18295
664.47039	0.17725
663.50599	0.17526
662.54159	0.17354
661.57719	0.17131
660.61279	0.17002
659.64840	0.16908
658.68400	0.16759
657.71960	0.16553
656.75520	0.16343
655.79080	0.16115
654.82641	0.15774
653.86201	0.15427
652.89761	0.15189
651.93321	0.14955
650.96881	0.14714
650.00441	0.14546
649.04002	0.14367
648.07562	0.14105
647.11122	0.13795
646.14682	0.13469
645.18242	0.13218
644.21802	0.13083
643.25363	0.12965
642.28923	0.12820
641.32483	0.12639
640.36043	0.12419
639.39603	0.12107
638.43163	0.11631
637.46724	0.11220
636.50284	0.11078
635.53844	0.10914
634.57404	0.10509
633.60964	0.10181
632.64525	0.10084
631.68085	0.09922
630.71645	0.09595
629.75205	0.09181
628.78765	0.08711
627.82325	0.08321
626.85886	0.08017
625.89446	0.07681
624.93006	0.07301
623.96566	0.06855
623.00126	0.06452
622.03686	0.06283
621.07247	0.06210
620.10807	0.05876
619.14367	0.05308
618.17927	0.04858
617.21487	0.04589
616.25048	0.04394
615.28608	0.04243
614.32168	0.03930
613.35728	0.03402
612.39288	0.03084
611.42848	0.03095
610.46409	0.03077
609.49969	0.02998
608.53529	0.02931
607.57089	0.02779
606.60649	0.02615
605.64209	0.02556
604.67770	0.02345
603.71330	0.02137
602.74890	0.01944
601.78450	0.01721
600.82010	0.01382
599.85571	0.01073
598.89131	0.00945
597.92691	0.00777
596.96251	0.00420
595.99811	0.00146
595.03371	0.00057
594.06932	0.00000
593.10492	0.00108
592.14052	0.00432
591.17612	0.00638
590.21172	0.00670
589.24732	0.00857
588.28293	0.01319
587.31853	0.01904
586.35413	0.02556
585.38973	0.03369
584.42533	0.04571
583.46094	0.05799
582.49654	0.06887
581.53214	0.08312
580.56774	0.10435
579.60334	0.12962
578.63894	0.15598
577.67455	0.18388
576.71015	0.21549
575.74575	0.25354
574.78135	0.29789
573.81695	0.34589
572.85255	0.39470
571.88816	0.44480
570.92376	0.49792
569.95936	0.55055
568.99496	0.59765
568.03056	0.63506
567.06617	0.65844
566.10177	0.66672
565.13737	0.66316
564.17297	0.65032
563.20857	0.62939
562.24417	0.60136
561.27978	0.56704
560.31538	0.53039
559.35098	0.49521
558.38658	0.46143
557.42218	0.42938
556.45778	0.40051
555.49339	0.37391
554.52899	0.34942
553.56459	0.33157
552.60019	0.32185
551.63579	0.31669
550.67140	0.31495
549.70700	0.31969
548.74260	0.33734
547.77820	0.37144
546.81380	0.41850
545.84940	0.47235
544.88501	0.52701
543.92061	0.57940
542.95621	0.62855
541.99181	0.67232
541.02741	0.71250
540.06301	0.75607
539.09862	0.80533
538.13422	0.85939
537.16982	0.92192
536.20542	0.99355
535.24102	1.06704
534.27663	1.13836
533.31223	1.20938
532.34783	1.27723
531.38343	1.33424
530.41903	1.37724
529.45463	1.40924
528.49024	1.43364
527.52584	1.45363
526.56144	1.47921
525.59704	1.52005
524.63264	1.56864
523.66824	1.61248
522.70385	1.64764
521.73945	1.67146
520.77505	1.68045
519.81065	1.67224
518.84625	1.65113
517.88185	1.62988
516.91746	1.61868
515.95306	1.62030
514.98866	1.63496
514.02426	1.66384
513.05986	1.70620
512.09547	1.75856
511.13107	1.81382
510.16667	1.86188
509.20227	1.90009
508.23787	1.93557
507.27347	1.97108
506.30908	1.99627
505.34468	2.00000
504.38028	1.98253
503.41588	1.95407
502.45148	1.92385
501.48708	1.88957
500.52269	1.84856
499.55829	1.80521
498.59389	1.76079
497.62949	1.71305
496.66509	1.66231
495.70070	1.60913
494.73630	1.55492
493.77190	1.50323
492.80750	1.45493
491.84310	1.40950
490.87870	1.36539
489.91431	1.31892
488.94991	1.27029
487.98551	1.22457
487.02111	1.18257
486.05671	1.14158
485.09231	1.10324
484.12792	1.06651
483.16352	1.02676
482.19912	0.98682
481.23472	0.95119
480.27032	0.91943
479.30593	0.89241
478.34153	0.87003
477.37713	0.84851
476.41273	0.82878
475.44833	0.81428
474.48393	0.80295
473.51954	0.79070
472.55514	0.77525
471.59074	0.75525
470.62634	0.73161
469.66194	0.70643
468.69754	0.68138
467.73315	0.65657
466.76875	0.62920
465.80435	0.59889
464.83995	0.56800
463.87555	0.53707
462.91116	0.50520
461.94676	0.46979
460.98236	0.43217
460.01796	0.39775
459.05356	0.36558
458.08916	0.33421
457.12477	0.30861
456.16037	0.28621
455.19597	0.26188
454.23157	0.24076
453.26717	0.22526
452.30277	0.20772
451.33838	0.18571
450.37398	0.16437
449.40958	0.14621
448.44518	0.13110
447.48078	0.11806
446.51639	0.10537
445.55199	0.09332
444.58759	0.08253
443.62319	0.07077
442.65879	0.05725
441.69439	0.04527
440.73000	0.03740
439.76560	0.03164
438.80120	0.02556
437.83680	0.01921
436.87240	0.02163
435.90800	0.03580
434.94361	0.05497
433.97921	0.07192
433.01481	0.09165
432.05041	0.12195
431.08601	0.16072
430.12162	0.20271
429.15722	0.24229
428.19282	0.27840
427.22842	0.31820
426.26402	0.36117
425.29962	0.39496
424.33523	0.41455
423.37083	0.42988
422.40643	0.43946
421.44203	0.43448
420.47763	0.42450
419.51323	0.41461
418.54884	0.38724
417.58444	0.34723
416.62004	0.31635
415.65564	0.29846
414.69124	0.28640
413.72685	0.26777
412.76245	0.24012
411.79805	0.21033
410.83365	0.18467
409.86925	0.16819
408.90485	0.15921
407.94046	0.14830
406.97606	0.13426
406.01166	0.12779
405.04726	0.12968
404.08286	0.13135
403.11846	0.13501
402.15407	0.13829
401.18967	0.12400
400.22527	0.08206
399.26087	0.02556
