3998.39510	0.02761
3997.43071	0.02689
3996.46631	0.02706
3995.50191	0.02800
3994.53751	0.02795
3993.57311	0.02657
3992.60871	0.02562
3991.64432	0.02597
3990.67992	0.02636
3989.71552	0.02569
3988.75112	0.02510
3987.78672	0.02549
3986.82232	0.02567
3985.85793	0.02520
3984.89353	0.02510
3983.92913	0.02600
3982.96473	0.02730
3982.00033	0.02749
3981.03594	0.02667
3980.07154	0.02621
3979.10714	0.02644
3978.14274	0.02687
3977.17834	0.02720
3976.21394	0.02694
3975.24955	0.02604
3974.28515	0.02565
3973.32075	0.02576
3972.35635	0.02615
3971.39195	0.02792
3970.42755	0.03019
3969.46316	0.03125
3968.49876	0.03054
3967.53436	0.02852
3966.56996	0.02658
3965.60556	0.02514
3964.64117	0.02443
3963.67677	0.02525
3962.71237	0.02650
3961.74797	0.02632
3960.78357	0.02606
3959.81917	0.02713
3958.85478	0.02836
3957.89038	0.02973
3956.92598	0.03091
3955.96158	0.02974
3954.99718	0.02736
3954.03278	0.02692
3953.06839	0.02763
3952.10399	0.02807
3951.13959	0.03014
3950.17519	0.03261
3949.21079	0.03310
3948.24640	0.03393
3947.28200	0.03383
3946.31760	0.02997
3945.35320	0.02644
3944.38880	0.02766
3943.42440	0.03172
3942.46001	0.03244
3941.49561	0.02825
3940.53121	0.02446
3939.56681	0.02443
3938.60241	0.02614
3937.63801	0.02668
3936.67362	0.02655
3935.70922	0.02797
3934.74482	0.03123
3933.78042	0.03580
3932.81602	0.04053
3931.85163	0.04140
3930.88723	0.03798
3929.92283	0.03460
3928.95843	0.03299
3927.99403	0.03171
3927.02963	0.03025
3926.06524	0.03071
3925.10084	0.03360
3924.13644	0.03515
3923.17204	0.03339
3922.20764	0.03013
3921.24324	0.02924
3920.27885	0.03178
3919.31445	0.03246
3918.35005	0.03200
3917.38565	0.03551
3916.42125	0.03871
3915.45686	0.03618
3914.49246	0.03094
3913.52806	0.02707
3912.56366	0.02578
3911.59926	0.02574
3910.63486	0.02608
3909.67047	0.02695
3908.70607	0.02819
3907.74167	0.03043
3906.77727	0.03414
3905.81287	0.03873
3904.84847	0.04390
3903.88408	0.04750
3902.91968	0.04968
3901.95528	0.05010
3900.99088	0.04656
3900.02648	0.04500
3899.06209	0.04559
3898.09769	0.04080
3897.13329	0.03434
3896.16889	0.03082
3895.20449	0.02991
3894.24009	0.03112
3893.27570	0.03435
3892.31130	0.04049
3891.34690	0.04637
3890.38250	0.04481
3889.41810	0.03791
3888.45370	0.03093
3887.48931	0.02877
3886.52491	0.03670
3885.56051	0.04628
3884.59611	0.04323
3883.63171	0.03692
3882.66731	0.03604
3881.70292	0.04167
3880.73852	0.04925
3879.77412	0.04665
3878.80972	0.03715
3877.84532	0.03111
3876.88093	0.02909
3875.91653	0.02986
3874.95213	0.03514
3873.98773	0.03950
3873.02333	0.03749
3872.05893	0.03702
3871.09454	0.04534
3870.13014	0.05791
3869.16574	0.05405
3868.20134	0.03936
3867.23694	0.03226
3866.27254	0.03804
3865.30815	0.05020
3864.34375	0.05223
3863.37935	0.04669
3862.41495	0.04574
3861.45055	0.04557
3860.48616	0.04005
3859.52176	0.03497
3858.55736	0.03514
3857.59296	0.03860
3856.62856	0.03941
3855.66416	0.03967
3854.69977	0.05306
3853.73537	0.07392
3852.77097	0.07174
3851.80657	0.05798
3850.84217	0.04646
3849.87777	0.03876
3848.91338	0.03264
3847.94898	0.02768
3846.98458	0.02599
3846.02018	0.02783
3845.05578	0.03236
3844.09139	0.03830
3843.12699	0.04062
3842.16259	0.04075
3841.19819	0.04479
3840.23379	0.04800
3839.26939	0.04771
3838.30500	0.05311
3837.34060	0.05694
3836.37620	0.05238
3835.41180	0.04884
3834.44740	0.04467
3833.48300	0.03822
3832.51861	0.03817
3831.55421	0.04302
3830.58981	0.04114
3829.62541	0.03547
3828.66101	0.03377
3827.69662	0.03721
3826.73222	0.04017
3825.76782	0.03743
3824.80342	0.03262
3823.83902	0.03122
3822.87462	0.03726
3821.91023	0.05428
3820.94583	0.06639
3819.98143	0.05732
3819.01703	0.04412
3818.05263	0.03772
3817.08823	0.04086
3816.12384	0.04847
3815.15944	0.04427
3814.19504	0.03444
3813.23064	0.02998
3812.26624	0.03032
3811.30185	0.03092
3810.33745	0.03023
3809.37305	0.02947
3808.40865	0.03254
3807.44425	0.04207
3806.47985	0.04582
3805.51546	0.03810
3804.55106	0.03139
3803.58666	0.03124
3802.62226	0.03765
3801.65786	0.04980
3800.69346	0.05184
3799.72907	0.04255
3798.76467	0.03531
3797.80027	0.03527
3796.83587	0.03876
3795.87147	0.03775
3794.90708	0.03292
3793.94268	0.02981
3792.97828	0.02884
3792.01388	0.02857
3791.04948	0.02892
3790.08508	0.02974
3789.12069	0.03004
3788.15629	0.02907
3787.19189	0.02787
3786.22749	0.02873
3785.26309	0.03179
3784.29869	0.03299
3783.33430	0.03110
3782.36990	0.02965
3781.40550	0.03085
3780.44110	0.03577
3779.47670	0.04100
3778.51230	0.04003
3777.54791	0.03426
3776.58351	0.02786
3775.61911	0.02443
3774.65471	0.02446
3773.69031	0.02697
3772.72592	0.03157
3771.76152	0.03621
3770.79712	0.04197
3769.83272	0.04656
3768.86832	0.04210
3767.90392	0.03501
3766.93953	0.03484
3765.97513	0.03961
3765.01073	0.03951
3764.04633	0.03618
3763.08193	0.03511
3762.11753	0.03581
3761.15314	0.03977
3760.18874	0.04800
3759.22434	0.04988
3758.25994	0.04421
3757.29554	0.04238
3756.33115	0.04365
3755.36675	0.04094
3754.40235	0.03651
3753.43795	0.03800
3752.47355	0.05091
3751.50915	0.05842
3750.54476	0.05452
3749.58036	0.05173
3748.61596	0.04852
3747.65156	0.04335
3746.68716	0.04131
3745.72276	0.04842
3744.75837	0.06764
3743.79397	0.06655
3742.82957	0.05238
3741.86517	0.04470
3740.90077	0.04212
3739.93638	0.04069
3738.97198	0.04186
3738.00758	0.04690
3737.04318	0.05667
3736.07878	0.06908
3735.11438	0.07255
3734.14999	0.06368
3733.18559	0.05485
3732.22119	0.05029
3731.25679	0.04353
3730.29239	0.03636
3729.32799	0.03318
3728.36360	0.03434
3727.39920	0.03991
3726.43480	0.04480
3725.47040	0.04350
3724.50600	0.04021
3723.54161	0.04185
3722.57721	0.04739
3721.61281	0.04641
3720.64841	0.04155
3719.68401	0.04117
3718.71961	0.04153
3717.75522	0.03817
3716.79082	0.03436
3715.82642	0.03266
3714.86202	0.03239
3713.89762	0.03353
3712.93322	0.04131
3711.96883	0.05225
3711.00443	0.05121
3710.04003	0.04526
3709.07563	0.04164
3708.11123	0.03618
3707.14684	0.03027
3706.18244	0.02802
3705.21804	0.02863
3704.25364	0.02919
3703.28924	0.03081
3702.32484	0.03579
3701.36045	0.03786
3700.39605	0.03370
3699.43165	0.02967
3698.46725	0.02872
3697.50285	0.03052
3696.53845	0.03336
3695.57406	0.03432
3694.60966	0.03260
3693.64526	0.02968
3692.68086	0.02975
3691.71646	0.03715
3690.75207	0.04427
3689.78767	0.04486
3688.82327	0.04641
3687.85887	0.04488
3686.89447	0.03683
3685.93007	0.03143
3684.96568	0.03091
3684.00128	0.03070
3683.03688	0.02956
3682.07248	0.02955
3681.10808	0.03178
3680.14368	0.03532
3679.17929	0.03716
3678.21489	0.03742
3677.25049	0.04186
3676.28609	0.05742
3675.32169	0.06985
3674.35730	0.05895
3673.39290	0.04388
3672.42850	0.03620
3671.46410	0.03941
3670.49970	0.05088
3669.53530	0.05607
3668.57091	0.05091
3667.60651	0.04133
3666.64211	0.03341
3665.67771	0.02989
3664.71331	0.02947
3663.74891	0.03041
3662.78452	0.03138
3661.82012	0.03153
3660.85572	0.03100
3659.89132	0.02912
3658.92692	0.02637
3657.96252	0.02614
3656.99813	0.03304
3656.03373	0.04083
3655.06933	0.03805
3654.10493	0.03235
3653.14053	0.03231
3652.17614	0.03950
3651.21174	0.05260
3650.24734	0.06506
3649.28294	0.06929
3648.31854	0.06692
3647.35414	0.06032
3646.38975	0.04958
3645.42535	0.03944
3644.46095	0.03445
3643.49655	0.03489
3642.53215	0.03711
3641.56775	0.03665
3640.60336	0.03293
3639.63896	0.02941
3638.67456	0.02950
3637.71016	0.03176
3636.74576	0.03201
3635.78137	0.03113
3634.81697	0.03248
3633.85257	0.03479
3632.88817	0.03456
3631.92377	0.03445
3630.95937	0.04002
3629.99498	0.05330
3629.03058	0.06293
3628.06618	0.05652
3627.10178	0.04621
3626.13738	0.03861
3625.17298	0.03318
3624.20859	0.02976
3623.24419	0.02908
3622.27979	0.03107
3621.31539	0.03590
3620.35099	0.04346
3619.38660	0.04976
3618.42220	0.05077
3617.45780	0.04616
3616.49340	0.04040
3615.52900	0.03952
3614.56460	0.04217
3613.60021	0.04305
3612.63581	0.04025
3611.67141	0.03439
3610.70701	0.03142
3609.74261	0.03615
3608.77821	0.04245
3607.81382	0.04263
3606.84942	0.03717
3605.88502	0.02999
3604.92062	0.02686
3603.95622	0.02773
3602.99183	0.02892
3602.02743	0.03098
3601.06303	0.03464
3600.09863	0.03714
3599.13423	0.03731
3598.16983	0.03580
3597.20544	0.03366
3596.24104	0.03321
3595.27664	0.03509
3594.31224	0.03712
3593.34784	0.03701
3592.38344	0.03303
3591.41905	0.02814
3590.45465	0.02824
3589.49025	0.03608
3588.52585	0.04694
3587.56145	0.05239
3586.59706	0.05048
3585.63266	0.04380
3584.66826	0.03679
3583.70386	0.03202
3582.73946	0.02950
3581.77506	0.02948
3580.81067	0.03103
3579.84627	0.03090
3578.88187	0.02865
3577.91747	0.02771
3576.95307	0.02888
3575.98867	0.03027
3575.02428	0.03098
3574.05988	0.02976
3573.09548	0.02767
3572.13108	0.02871
3571.16668	0.03252
3570.20229	0.03518
3569.23789	0.03874
3568.27349	0.04780
3567.30909	0.05578
3566.34469	0.05323
3565.38029	0.04425
3564.41590	0.03779
3563.45150	0.03603
3562.48710	0.03502
3561.52270	0.03195
3560.55830	0.02894
3559.59390	0.02841
3558.62951	0.02871
3557.66511	0.02774
3556.70071	0.02592
3555.73631	0.02443
3554.77191	0.02460
3553.80752	0.02772
3552.84312	0.03266
3551.87872	0.03515
3550.91432	0.03362
3549.94992	0.03105
3548.98552	0.03026
3548.02113	0.03222
3547.05673	0.03556
3546.09233	0.03835
3545.12793	0.03815
3544.16353	0.03400
3543.19913	0.03047
3542.23474	0.03023
3541.27034	0.03032
3540.30594	0.02911
3539.34154	0.02782
3538.37714	0.02794
3537.41274	0.03047
3536.44835	0.03279
3535.48395	0.03165
3534.51955	0.02902
3533.55515	0.02722
3532.59075	0.02680
3531.62636	0.02789
3530.66196	0.02938
3529.69756	0.03047
3528.73316	0.03160
3527.76876	0.03359
3526.80436	0.03533
3525.83997	0.03484
3524.87557	0.03366
3523.91117	0.03416
3522.94677	0.03436
3521.98237	0.03135
3521.01797	0.02810
3520.05358	0.02801
3519.08918	0.02903
3518.12478	0.02872
3517.16038	0.02781
3516.19598	0.02746
3515.23159	0.02748
3514.26719	0.02687
3513.30279	0.02538
3512.33839	0.02467
3511.37399	0.02607
3510.40959	0.02878
3509.44520	0.03119
3508.48080	0.03141
3507.51640	0.02968
3506.55200	0.02920
3505.58760	0.03107
3504.62320	0.03353
3503.65881	0.03566
3502.69441	0.03586
3501.73001	0.03304
3500.76561	0.02972
3499.80121	0.02853
3498.83682	0.02897
3497.87242	0.02933
3496.90802	0.02931
3495.94362	0.03000
3494.97922	0.03050
3494.01482	0.02903
3493.05043	0.02834
3492.08603	0.03085
3491.12163	0.03227
3490.15723	0.02985
3489.19283	0.02786
3488.22843	0.02890
3487.26404	0.02989
3486.29964	0.02863
3485.33524	0.02675
3484.37084	0.02620
3483.40644	0.02679
3482.44205	0.02690
3481.47765	0.02631
3480.51325	0.02619
3479.54885	0.02734
3478.58445	0.02971
3477.62005	0.03102
3476.65566	0.03071
3475.69126	0.03114
3474.72686	0.03155
3473.76246	0.03036
3472.79806	0.02881
3471.83366	0.02819
3470.86927	0.02831
3469.90487	0.02815
3468.94047	0.02821
3467.97607	0.02969
3467.01167	0.03157
3466.04728	0.03224
3465.08288	0.03185
3464.11848	0.03168
3463.15408	0.03214
3462.18968	0.03187
3461.22528	0.02971
3460.26089	0.02725
3459.29649	0.02728
3458.33209	0.02903
3457.36769	0.02954
3456.40329	0.02847
3455.43889	0.02691
3454.47450	0.02607
3453.51010	0.02650
3452.54570	0.02638
3451.58130	0.02487
3450.61690	0.02443
3449.65251	0.02688
3448.68811	0.03063
3447.72371	0.03202
3446.75931	0.03051
3445.79491	0.02959
3444.83051	0.03034
3443.86612	0.03109
3442.90172	0.03084
3441.93732	0.02975
3440.97292	0.02908
3440.00852	0.02947
3439.04412	0.03068
3438.07973	0.03190
3437.11533	0.03196
3436.15093	0.03151
3435.18653	0.03092
3434.22213	0.02889
3433.25774	0.02680
3432.29334	0.02772
3431.32894	0.03028
3430.36454	0.03109
3429.40014	0.03102
3428.43574	0.03116
3427.47135	0.02951
3426.50695	0.02691
3425.54255	0.02719
3424.57815	0.02985
3423.61375	0.03067
3422.64935	0.02897
3421.68496	0.02759
3420.72056	0.02762
3419.75616	0.02828
3418.79176	0.02858
3417.82736	0.02766
3416.86296	0.02730
3415.89857	0.02983
3414.93417	0.03240
3413.96977	0.03216
3413.00537	0.03114
3412.04097	0.03089
3411.07658	0.03121
3410.11218	0.03200
3409.14778	0.03259
3408.18338	0.03202
3407.21898	0.03124
3406.25458	0.03140
3405.29019	0.03139
3404.32579	0.03134
3403.36139	0.03225
3402.39699	0.03266
3401.43259	0.03284
3400.46819	0.03421
3399.50380	0.03518
3398.53940	0.03451
3397.57500	0.03355
3396.61060	0.03373
3395.64620	0.03482
3394.68181	0.03610
3393.71741	0.03779
3392.75301	0.03932
3391.78861	0.03893
3390.82421	0.03724
3389.85981	0.03615
3388.89542	0.03495
3387.93102	0.03313
3386.96662	0.03182
3386.00222	0.03158
3385.03782	0.03348
3384.07342	0.03681
3383.10903	0.03841
3382.14463	0.03827
3381.18023	0.03862
3380.21583	0.04001
3379.25143	0.04181
3378.28704	0.04287
3377.32264	0.04229
3376.35824	0.04055
3375.39384	0.03888
3374.42944	0.03786
3373.46504	0.03824
3372.50065	0.04038
3371.53625	0.04251
3370.57185	0.04310
3369.60745	0.04284
3368.64305	0.04238
3367.67865	0.04184
3366.71426	0.04155
3365.74986	0.04105
3364.78546	0.04071
3363.82106	0.04237
3362.85666	0.04524
3361.89227	0.04611
3360.92787	0.04457
3359.96347	0.04258
3358.99907	0.04170
3358.03467	0.04354
3357.07027	0.04768
3356.10588	0.05020
3355.14148	0.04914
3354.17708	0.04759
3353.21268	0.04792
3352.24828	0.04857
3351.28388	0.04797
3350.31949	0.04684
3349.35509	0.04689
3348.39069	0.04850
3347.42629	0.04961
3346.46189	0.04943
3345.49750	0.04946
3344.53310	0.05061
3343.56870	0.05284
3342.60430	0.05487
3341.63990	0.05565
3340.67550	0.05567
3339.71111	0.05552
3338.74671	0.05606
3337.78231	0.05718
3336.81791	0.05708
3335.85351	0.05600
3334.88911	0.05590
3333.92472	0.05698
3332.96032	0.05820
3331.99592	0.05929
3331.03152	0.06060
3330.06712	0.06195
3329.10273	0.06333
3328.13833	0.06509
3327.17393	0.06685
3326.20953	0.06778
3325.24513	0.06719
3324.28073	0.06545
3323.31634	0.06433
3322.35194	0.06490
3321.38754	0.06684
3320.42314	0.06937
3319.45874	0.07151
3318.49434	0.07257
3317.52995	0.07269
3316.56555	0.07302
3315.60115	0.07438
3314.63675	0.07600
3313.67235	0.07707
3312.70795	0.07794
3311.74356	0.07876
3310.77916	0.08003
3309.81476	0.08209
3308.85036	0.08381
3307.88596	0.08527
3306.92157	0.08738
3305.95717	0.08900
3304.99277	0.08971
3304.02837	0.09052
3303.06397	0.09095
3302.09957	0.08985
3301.13518	0.08879
3300.17078	0.09069
3299.20638	0.09422
3298.24198	0.09618
3297.27758	0.09688
3296.31318	0.09813
3295.34879	0.10077
3294.38439	0.10451
3293.41999	0.10802
3292.45559	0.10948
3291.49119	0.10818
3290.52680	0.10658
3289.56240	0.10778
3288.59800	0.11094
3287.63360	0.11390
3286.66920	0.11667
3285.70480	0.11862
3284.74041	0.11953
3283.77601	0.12133
3282.81161	0.12436
3281.84721	0.12722
3280.88281	0.12923
3279.91841	0.13102
3278.95402	0.13390
3277.98962	0.13754
3277.02522	0.14046
3276.06082	0.14193
3275.09642	0.14258
3274.13203	0.14429
3273.16763	0.14794
3272.20323	0.15201
3271.23883	0.15442
3270.27443	0.15542
3269.31003	0.15664
3268.34564	0.15820
3267.38124	0.16029
3266.41684	0.16297
3265.45244	0.16529
3264.48804	0.16758
3263.52364	0.17049
3262.55925	0.17449
3261.59485	0.17931
3260.63045	0.18196
3259.66605	0.18167
3258.70165	0.18235
3257.73726	0.18594
3256.77286	0.19017
3255.80846	0.19335
3254.84406	0.19635
3253.87966	0.19961
3252.91526	0.20248
3251.95087	0.20517
3250.98647	0.20843
3250.02207	0.21261
3249.05767	0.21640
3248.09327	0.21853
3247.12887	0.22073
3246.16448	0.22446
3245.20008	0.22799
3244.23568	0.23037
3243.27128	0.23276
3242.30688	0.23510
3241.34249	0.23763
3240.37809	0.24099
3239.41369	0.24375
3238.44929	0.24634
3237.48489	0.25077
3236.52049	0.25582
3235.55610	0.25998
3234.59170	0.26417
3233.62730	0.26844
3232.66290	0.27197
3231.69850	0.27628
3230.73410	0.28193
3229.76971	0.28632
3228.80531	0.28929
3227.84091	0.29256
3226.87651	0.29557
3225.91211	0.29843
3224.94772	0.30197
3223.98332	0.30539
3223.01892	0.30886
3222.05452	0.31305
3221.09012	0.31746
3220.12572	0.32179
3219.16133	0.32618
3218.19693	0.33126
3217.23253	0.33674
3216.26813	0.34078
3215.30373	0.34316
3214.33933	0.34543
3213.37494	0.34838
3212.41054	0.35137
3211.44614	0.35447
3210.48174	0.35835
3209.51734	0.36137
3208.55295	0.36318
3207.58855	0.36613
3206.62415	0.36937
3205.65975	0.37098
3204.69535	0.37170
3203.73095	0.37297
3202.76656	0.37558
3201.80216	0.37800
3200.83776	0.37885
3199.87336	0.37951
3198.90896	0.38125
3197.94456	0.38378
3196.98017	0.38581
3196.01577	0.38657
3195.05137	0.38727
3194.08697	0.38882
3193.12257	0.39079
3192.15817	0.39298
3191.19378	0.39501
3190.22938	0.39589
3189.26498	0.39591
3188.30058	0.39631
3187.33618	0.39750
3186.37179	0.39954
3185.40739	0.40194
3184.44299	0.40338
3183.47859	0.40395
3182.51419	0.40525
3181.54979	0.40664
3180.58540	0.40528
3179.62100	0.40239
3178.65660	0.40202
3177.69220	0.40362
3176.72780	0.40420
3175.76340	0.40362
3174.79901	0.40361
3173.83461	0.40491
3172.87021	0.40580
3171.90581	0.40518
3170.94141	0.40394
3169.97702	0.40225
3169.01262	0.40085
3168.04822	0.40082
3167.08382	0.40115
3166.11942	0.40101
3165.15502	0.40132
3164.19063	0.40213
3163.22623	0.40185
3162.26183	0.40076
3161.29743	0.40102
3160.33303	0.40176
3159.36863	0.40110
3158.40424	0.39980
3157.43984	0.39854
3156.47544	0.39774
3155.51104	0.39808
3154.54664	0.39824
3153.58225	0.39738
3152.61785	0.39672
3151.65345	0.39621
3150.68905	0.39524
3149.72465	0.39520
3148.76025	0.39659
3147.79586	0.39737
3146.83146	0.39669
3145.86706	0.39571
3144.90266	0.39515
3143.93826	0.39480
3142.97386	0.39472
3142.00947	0.39508
3141.04507	0.39599
3140.08067	0.39772
3139.11627	0.39909
3138.15187	0.39919
3137.18748	0.40008
3136.22308	0.40233
3135.25868	0.40362
3134.29428	0.40441
3133.32988	0.40669
3132.36548	0.40961
3131.40109	0.41184
3130.43669	0.41373
3129.47229	0.41612
3128.50789	0.41942
3127.54349	0.42324
3126.57909	0.42690
3125.61470	0.42962
3124.65030	0.43114
3123.68590	0.43265
3122.72150	0.43430
3121.75710	0.43558
3120.79271	0.43784
3119.82831	0.44156
3118.86391	0.44485
3117.89951	0.44652
3116.93511	0.44797
3115.97071	0.45080
3115.00632	0.45472
3114.04192	0.45841
3113.07752	0.46125
3112.11312	0.46334
3111.14872	0.46458
3110.18432	0.46576
3109.21993	0.46892
3108.25553	0.47411
3107.29113	0.47918
3106.32673	0.48313
3105.36233	0.48668
3104.39794	0.49005
3103.43354	0.49243
3102.46914	0.49403
3101.50474	0.49614
3100.54034	0.49881
3099.57594	0.50190
3098.61155	0.50568
3097.64715	0.50961
3096.68275	0.51341
3095.71835	0.51660
3094.75395	0.51905
3093.78955	0.52233
3092.82516	0.52688
3091.86076	0.53116
3090.89636	0.53392
3089.93196	0.53668
3088.96756	0.54175
3088.00317	0.54747
3087.03877	0.55099
3086.07437	0.55320
3085.10997	0.55655
3084.14557	0.56140
3083.18117	0.56680
3082.21678	0.57199
3081.25238	0.57664
3080.28798	0.58118
3079.32358	0.58576
3078.35918	0.59013
3077.39478	0.59449
3076.43039	0.59882
3075.46599	0.60297
3074.50159	0.60745
3073.53719	0.61223
3072.57279	0.61632
3071.60839	0.61976
3070.64400	0.62280
3069.67960	0.62516
3068.71520	0.62776
3067.75080	0.63165
3066.78640	0.63648
3065.82201	0.64122
3064.85761	0.64497
3063.89321	0.64773
3062.92881	0.65039
3061.96441	0.65361
3061.00001	0.65671
3060.03562	0.65908
3059.07122	0.66135
3058.10682	0.66451
3057.14242	0.66868
3056.17802	0.67144
3055.21362	0.67185
3054.24923	0.67292
3053.28483	0.67546
3052.32043	0.67762
3051.35603	0.67880
3050.39163	0.67897
3049.42724	0.67900
3048.46284	0.68093
3047.49844	0.68451
3046.53404	0.68729
3045.56964	0.68885
3044.60524	0.69082
3043.64085	0.69390
3042.67645	0.69743
3041.71205	0.70038
3040.74765	0.70166
3039.78325	0.70159
3038.81885	0.70224
3037.85446	0.70415
3036.89006	0.70612
3035.92566	0.70837
3034.96126	0.71138
3033.99686	0.71379
3033.03247	0.71547
3032.06807	0.71803
3031.10367	0.72078
3030.13927	0.72160
3029.17487	0.72119
3028.21047	0.72179
3027.24608	0.72436
3026.28168	0.72754
3025.31728	0.72898
3024.35288	0.72926
3023.38848	0.73028
3022.42408	0.73135
3021.45969	0.73197
3020.49529	0.73314
3019.53089	0.73443
3018.56649	0.73472
3017.60209	0.73466
3016.63770	0.73586
3015.67330	0.73827
3014.70890	0.74059
3013.74450	0.74243
3012.78010	0.74377
3011.81570	0.74416
3010.85131	0.74435
3009.88691	0.74487
3008.92251	0.74455
3007.95811	0.74415
3006.99371	0.74523
3006.02931	0.74695
3005.06492	0.74845
3004.10052	0.74912
3003.13612	0.74804
3002.17172	0.74667
3001.20732	0.74718
3000.24293	0.74892
2999.27853	0.75063
2998.31413	0.75183
2997.34973	0.75228
2996.38533	0.75285
2995.42093	0.75401
2994.45654	0.75422
2993.49214	0.75323
2992.52774	0.75282
2991.56334	0.75263
2990.59894	0.75115
2989.63454	0.74958
2988.67015	0.74955
2987.70575	0.75001
2986.74135	0.74939
2985.77695	0.74802
2984.81255	0.74757
2983.84816	0.74836
2982.88376	0.74860
2981.91936	0.74728
2980.95496	0.74503
2979.99056	0.74304
2979.02616	0.74201
2978.06177	0.74114
2977.09737	0.73995
2976.13297	0.73903
2975.16857	0.73803
2974.20417	0.73633
2973.23977	0.73450
2972.27538	0.73358
2971.31098	0.73384
2970.34658	0.73435
2969.38218	0.73409
2968.41778	0.73313
2967.45339	0.73260
2966.48899	0.73280
2965.52459	0.73244
2964.56019	0.73165
2963.59579	0.73195
2962.63139	0.73286
2961.66700	0.73271
2960.70260	0.73196
2959.73820	0.73264
2958.77380	0.73434
2957.80940	0.73489
2956.84500	0.73474
2955.88061	0.73573
2954.91621	0.73790
2953.95181	0.74026
2952.98741	0.74197
2952.02301	0.74267
2951.05861	0.74271
2950.09422	0.74410
2949.12982	0.74881
2948.16542	0.75398
2947.20102	0.75564
2946.23662	0.75556
2945.27223	0.75704
2944.30783	0.75914
2943.34343	0.75939
2942.37903	0.75830
2941.41463	0.75838
2940.45023	0.75972
2939.48584	0.76034
2938.52144	0.76003
2937.55704	0.75971
2936.59264	0.75954
2935.62824	0.75995
2934.66384	0.76171
2933.69945	0.76433
2932.73505	0.76682
2931.77065	0.76996
2930.80625	0.77376
2929.84185	0.77540
2928.87746	0.77445
2927.91306	0.77390
2926.94866	0.77486
2925.98426	0.77620
2925.01986	0.77725
2924.05546	0.77785
2923.09107	0.77856
2922.12667	0.78041
2921.16227	0.78324
2920.19787	0.78669
2919.23347	0.79086
2918.26907	0.79464
2917.30468	0.79737
2916.34028	0.80010
2915.37588	0.80392
2914.41148	0.80790
2913.44708	0.81011
2912.48269	0.81126
2911.51829	0.81259
2910.55389	0.81316
2909.58949	0.81301
2908.62509	0.81395
2907.66069	0.81648
2906.69630	0.81921
2905.73190	0.82205
2904.76750	0.82576
2903.80310	0.82882
2902.83870	0.82979
2901.87430	0.82956
2900.90991	0.83015
2899.94551	0.83276
2898.98111	0.83640
2898.01671	0.84004
2897.05231	0.84385
2896.08792	0.84665
2895.12352	0.84747
2894.15912	0.84794
2893.19472	0.84888
2892.23032	0.84969
2891.26592	0.85043
2890.30153	0.85146
2889.33713	0.85322
2888.37273	0.85558
2887.40833	0.85795
2886.44393	0.86033
2885.47953	0.86266
2884.51514	0.86484
2883.55074	0.86678
2882.58634	0.86833
2881.62194	0.87025
2880.65754	0.87270
2879.69315	0.87497
2878.72875	0.87728
2877.76435	0.87983
2876.79995	0.88216
2875.83555	0.88483
2874.87115	0.88904
2873.90676	0.89372
2872.94236	0.89660
2871.97796	0.89772
2871.01356	0.89790
2870.04916	0.89766
2869.08476	0.89918
2868.12037	0.90379
2867.15597	0.90941
2866.19157	0.91363
2865.22717	0.91611
2864.26277	0.91763
2863.29838	0.91918
2862.33398	0.92156
2861.36958	0.92493
2860.40518	0.92857
2859.44078	0.93158
2858.47638	0.93383
2857.51199	0.93561
2856.54759	0.93781
2855.58319	0.94085
2854.61879	0.94445
2853.65439	0.94824
2852.68999	0.95096
2851.72560	0.95227
2850.76120	0.95414
2849.79680	0.95770
2848.83240	0.96206
2847.86800	0.96603
2846.90360	0.96945
2845.93921	0.97267
2844.97481	0.97534
2844.01041	0.97766
2843.04601	0.98097
2842.08161	0.98509
2841.11722	0.98888
2840.15282	0.99218
2839.18842	0.99498
2838.22402	0.99848
2837.25962	1.00323
2836.29522	1.00747
2835.33083	1.01038
2834.36643	1.01300
2833.40203	1.01712
2832.43763	1.02252
2831.47323	1.02653
2830.50883	1.02895
2829.54444	1.03165
2828.58004	1.03496
2827.61564	1.03839
2826.65124	1.04244
2825.68684	1.04738
2824.72245	1.05171
2823.75805	1.05479
2822.79365	1.05762
2821.82925	1.06044
2820.86485	1.06338
2819.90045	1.06648
2818.93606	1.06905
2817.97166	1.07188
2817.00726	1.07643
2816.04286	1.08184
2815.07846	1.08586
2814.11406	1.08801
2813.14967	1.08981
2812.18527	1.09281
2811.22087	1.09724
2810.25647	1.10180
2809.29207	1.10456
2808.32768	1.10519
2807.36328	1.10558
2806.39888	1.10724
2805.43448	1.10964
2804.47008	1.11161
2803.50568	1.11257
2802.54129	1.11324
2801.57689	1.11430
2800.61249	1.11551
2799.64809	1.11723
2798.68369	1.11897
2797.71929	1.11961
2796.75490	1.12008
2795.79050	1.12112
2794.82610	1.12179
2793.86170	1.12215
2792.89730	1.12258
2791.93291	1.12232
2790.96851	1.12163
2790.00411	1.12139
2789.03971	1.12138
2788.07531	1.12153
2787.11091	1.12180
2786.14652	1.12185
2785.18212	1.12217
2784.21772	1.12273
2783.25332	1.12236
2782.28892	1.12089
2781.32452	1.11942
2780.36013	1.11892
2779.39573	1.11957
2778.43133	1.12110
2777.46693	1.12275
2776.50253	1.12276
2775.53814	1.12126
2774.57374	1.12081
2773.60934	1.12203
2772.64494	1.12306
2771.68054	1.12289
2770.71614	1.12220
2769.75175	1.12135
2768.78735	1.12005
2767.82295	1.11891
2766.85855	1.11861
2765.89415	1.11881
2764.92975	1.11852
2763.96536	1.11770
2763.00096	1.11773
2762.03656	1.11840
2761.07216	1.11775
2760.10776	1.11639
2759.14337	1.11622
2758.17897	1.11653
2757.21457	1.11597
2756.25017	1.11467
2755.28577	1.11310
2754.32137	1.11191
2753.35698	1.11141
2752.39258	1.11103
2751.42818	1.11049
2750.46378	1.10973
2749.49938	1.10789
2748.53498	1.10531
2747.57059	1.10428
2746.60619	1.10470
2745.64179	1.10366
2744.67739	1.10121
2743.71299	1.10013
2742.74860	1.10065
2741.78420	1.10056
2740.81980	1.09895
2739.85540	1.09704
2738.89100	1.09538
2737.92660	1.09305
2736.96221	1.09074
2735.99781	1.08960
2735.03341	1.08861
2734.06901	1.08681
2733.10461	1.08412
2732.14021	1.08089
2731.17582	1.07844
2730.21142	1.07743
2729.24702	1.07637
2728.28262	1.07355
2727.31822	1.07017
2726.35382	1.06847
2725.38943	1.06808
2724.42503	1.06742
2723.46063	1.06576
2722.49623	1.06355
2721.53183	1.06168
2720.56744	1.05987
2719.60304	1.05792
2718.63864	1.05620
2717.67424	1.05419
2716.70984	1.05186
2715.74544	1.04972
2714.78105	1.04697
2713.81665	1.04368
2712.85225	1.04121
2711.88785	1.03970
2710.92345	1.03867
2709.95905	1.03791
2708.99466	1.03674
2708.03026	1.03477
2707.06586	1.03240
2706.10146	1.02974
2705.13706	1.02641
2704.17267	1.02287
2703.20827	1.02028
2702.24387	1.01886
2701.27947	1.01745
2700.31507	1.01524
2699.35067	1.01280
2698.38628	1.01056
2697.42188	1.00762
2696.45748	1.00349
2695.49308	0.99917
2694.52868	0.99567
2693.56428	0.99306
2692.59989	0.99139
2691.63549	0.99019
2690.67109	0.98797
2689.70669	0.98447
2688.74229	0.98087
2687.77790	0.97812
2686.81350	0.97604
2685.84910	0.97388
2684.88470	0.97173
2683.92030	0.96997
2682.95590	0.96788
2681.99151	0.96480
2681.02711	0.96125
2680.06271	0.95806
2679.09831	0.95543
2678.13391	0.95295
2677.16951	0.95069
2676.20512	0.94904
2675.24072	0.94718
2674.27632	0.94423
2673.31192	0.94100
2672.34752	0.93806
2671.38313	0.93486
2670.41873	0.93177
2669.45433	0.92959
2668.48993	0.92784
2667.52553	0.92563
2666.56113	0.92281
2665.59674	0.92034
2664.63234	0.91855
2663.66794	0.91661
2662.70354	0.91472
2661.73914	0.91309
2660.77474	0.91067
2659.81035	0.90739
2658.84595	0.90428
2657.88155	0.90151
2656.91715	0.89867
2655.95275	0.89610
2654.98836	0.89369
2654.02396	0.89104
2653.05956	0.88889
2652.09516	0.88708
2651.13076	0.88445
2650.16636	0.88133
2649.20197	0.87816
2648.23757	0.87512
2647.27317	0.87272
2646.30877	0.87052
2645.34437	0.86801
2644.37997	0.86547
2643.41558	0.86281
2642.45118	0.86004
2641.48678	0.85734
2640.52238	0.85459
2639.55798	0.85191
2638.59359	0.84948
2637.62919	0.84719
2636.66479	0.84493
2635.70039	0.84272
2634.73599	0.84022
2633.77159	0.83704
2632.80720	0.83410
2631.84280	0.83200
2630.87840	0.82942
2629.91400	0.82593
2628.94960	0.82300
2627.98520	0.82130
2627.02081	0.82029
2626.05641	0.81981
2625.09201	0.81912
2624.12761	0.81677
2623.16321	0.81308
2622.19882	0.81020
2621.23442	0.80868
2620.27002	0.80650
2619.30562	0.80251
2618.34122	0.79802
2617.37682	0.79463
2616.41243	0.79269
2615.44803	0.79187
2614.48363	0.79110
2613.51923	0.78907
2612.55483	0.78585
2611.59043	0.78273
2610.62604	0.78051
2609.66164	0.77904
2608.69724	0.77807
2607.73284	0.77740
2606.76844	0.77592
2605.80404	0.77256
2604.83965	0.76875
2603.87525	0.76646
2602.91085	0.76451
2601.94645	0.76170
2600.98205	0.75974
2600.01766	0.75847
2599.05326	0.75641
2598.08886	0.75483
2597.12446	0.75399
2596.16006	0.75135
2595.19566	0.74700
2594.23127	0.74360
2593.26687	0.74119
2592.30247	0.73835
2591.33807	0.73549
2590.37367	0.73315
2589.40927	0.73091
2588.44488	0.72846
2587.48048	0.72611
2586.51608	0.72432
2585.55168	0.72273
2584.58728	0.72045
2583.62289	0.71729
2582.65849	0.71429
2581.69409	0.71255
2580.72969	0.71123
2579.76529	0.70827
2578.80089	0.70480
2577.83650	0.70381
2576.87210	0.70388
2575.90770	0.70191
2574.94330	0.69856
2573.97890	0.69538
2573.01450	0.69241
2572.05011	0.68953
2571.08571	0.68667
2570.12131	0.68348
2569.15691	0.67988
2568.19251	0.67683
2567.22812	0.67481
2566.26372	0.67304
2565.29932	0.67142
2564.33492	0.67036
2563.37052	0.66905
2562.40612	0.66595
2561.44173	0.66180
2560.47733	0.65817
2559.51293	0.65498
2558.54853	0.65300
2557.58413	0.65228
2556.61973	0.65180
2555.65534	0.65104
2554.69094	0.64820
2553.72654	0.64363
2552.76214	0.63965
2551.79774	0.63629
2550.83335	0.63314
2549.86895	0.62984
2548.90455	0.62641
2547.94015	0.62358
2546.97575	0.62069
2546.01135	0.61814
2545.04696	0.61754
2544.08256	0.61729
2543.11816	0.61591
2542.15376	0.61462
2541.18936	0.61254
2540.22496	0.60889
2539.26057	0.60532
2538.29617	0.60177
2537.33177	0.59776
2536.36737	0.59497
2535.40297	0.59307
2534.43858	0.58981
2533.47418	0.58618
2532.50978	0.58415
2531.54538	0.58306
2530.58098	0.58157
2529.61658	0.57956
2528.65219	0.57844
2527.68779	0.57834
2526.72339	0.57708
2525.75899	0.57383
2524.79459	0.57074
2523.83019	0.56919
2522.86580	0.56691
2521.90140	0.56319
2520.93700	0.56113
2519.97260	0.56101
2519.00820	0.55937
2518.04381	0.55457
2517.07941	0.54838
2516.11501	0.54411
2515.15061	0.54353
2514.18621	0.54391
2513.22181	0.54168
2512.25742	0.53839
2511.29302	0.53671
2510.32862	0.53572
2509.36422	0.53482
2508.39982	0.53462
2507.43542	0.53406
2506.47103	0.53219
2505.50663	0.52882
2504.54223	0.52435
2503.57783	0.52118
2502.61343	0.52021
2501.64904	0.51929
2500.68464	0.51765
2499.72024	0.51620
2498.75584	0.51488
2497.79144	0.51317
2496.82704	0.51110
2495.86265	0.50880
2494.89825	0.50578
2493.93385	0.50207
2492.96945	0.49961
2492.00505	0.49925
2491.04065	0.49917
2490.07626	0.49837
2489.11186	0.49719
2488.14746	0.49553
2487.18306	0.49357
2486.21866	0.49195
2485.25426	0.49081
2484.28987	0.48950
2483.32547	0.48783
2482.36107	0.48624
2481.39667	0.48455
2480.43227	0.48257
2479.46788	0.48087
2478.50348	0.48013
2477.53908	0.47972
2476.57468	0.47830
2475.61028	0.47650
2474.64588	0.47519
2473.68149	0.47402
2472.71709	0.47360
2471.75269	0.47336
2470.78829	0.47146
2469.82389	0.46845
2468.85949	0.46623
2467.89510	0.46638
2466.93070	0.46828
2465.96630	0.46880
2465.00190	0.46653
2464.03750	0.46269
2463.07311	0.45924
2462.10871	0.45741
2461.14431	0.45646
2460.17991	0.45568
2459.21551	0.45534
2458.25111	0.45461
2457.28672	0.45307
2456.32232	0.45238
2455.35792	0.45250
2454.39352	0.45114
2453.42912	0.44824
2452.46472	0.44555
2451.50033	0.44364
2450.53593	0.44212
2449.57153	0.44136
2448.60713	0.44165
2447.64273	0.44148
2446.67834	0.44066
2445.71394	0.44088
2444.74954	0.44114
2443.78514	0.43958
2442.82074	0.43790
2441.85634	0.43804
2440.89195	0.43879
2439.92755	0.43832
2438.96315	0.43609
2437.99875	0.43294
2437.03435	0.43087
2436.06995	0.43070
2435.10556	0.43136
2434.14116	0.43152
2433.17676	0.43043
2432.21236	0.42977
2431.24796	0.43195
2430.28357	0.43455
2429.31917	0.43375
2428.35477	0.43076
2427.39037	0.42789
2426.42597	0.42489
2425.46157	0.42202
2424.49718	0.42109
2423.53278	0.42208
2422.56838	0.42230
2421.60398	0.42123
2420.63958	0.42142
2419.67518	0.42293
2418.71079	0.42281
2417.74639	0.42140
2416.78199	0.42206
2415.81759	0.42370
2414.85319	0.42294
2413.88880	0.42105
2412.92440	0.42050
2411.96000	0.42112
2410.99560	0.42190
2410.03120	0.42176
2409.06680	0.42064
2408.10241	0.41958
2407.13801	0.41841
2406.17361	0.41724
2405.20921	0.41714
2404.24481	0.41721
2403.28041	0.41667
2402.31602	0.41756
2401.35162	0.41992
2400.38722	0.42046
2399.42282	0.41896
2398.45842	0.41824
2397.49403	0.41862
2396.52963	0.41866
2395.56523	0.41891
2394.60083	0.42030
2393.63643	0.42193
2392.67203	0.42226
2391.70764	0.42093
2390.74324	0.41988
2389.77884	0.42004
2388.81444	0.41945
2387.85004	0.41787
2386.88564	0.41786
2385.92125	0.42012
2384.95685	0.42255
2383.99245	0.42389
2383.02805	0.42353
2382.06365	0.42120
2381.09925	0.41932
2380.13486	0.41967
2379.17046	0.42094
2378.20606	0.42186
2377.24166	0.42208
2376.27726	0.42184
2375.31287	0.42237
2374.34847	0.42391
2373.38407	0.42402
2372.41967	0.42207
2371.45527	0.42038
2370.49087	0.41831
2369.52648	0.41503
2368.56208	0.41475
2367.59768	0.41925
2366.63328	0.42136
2365.66888	0.41675
2364.70448	0.41371
2363.74009	0.41652
2362.77569	0.41737
2361.81129	0.41638
2360.84689	0.41939
2359.88249	0.42099
2358.91810	0.41616
2357.95370	0.41379
2356.98930	0.42132
2356.02490	0.43046
2355.06050	0.43443
2354.09610	0.43687
2353.13171	0.43857
2352.16731	0.43913
2351.20291	0.44250
2350.23851	0.44601
2349.27411	0.44199
2348.30971	0.43257
2347.34532	0.42635
2346.38092	0.42686
2345.41652	0.42944
2344.45212	0.42989
2343.48772	0.42852
2342.52333	0.42711
2341.55893	0.42594
2340.59453	0.42407
2339.63013	0.42172
2338.66573	0.41990
2337.70133	0.41759
2336.73694	0.41745
2335.77254	0.42107
2334.80814	0.42319
2333.84374	0.42289
2332.87934	0.42100
2331.91494	0.41674
2330.95055	0.41176
2329.98615	0.40848
2329.02175	0.40896
2328.05735	0.41304
2327.09295	0.41877
2326.12856	0.42441
2325.16416	0.42896
2324.19976	0.42978
2323.23536	0.42426
2322.27096	0.41681
2321.30656	0.41163
2320.34217	0.40744
2319.37777	0.40545
2318.41337	0.40706
2317.44897	0.40871
2316.48457	0.40749
2315.52017	0.40470
2314.55578	0.40284
2313.59138	0.40229
2312.62698	0.40143
2311.66258	0.39943
2310.69818	0.39707
2309.73379	0.39516
2308.76939	0.39368
2307.80499	0.39251
2306.84059	0.39147
2305.87619	0.38992
2304.91179	0.38857
2303.94740	0.38842
2302.98300	0.38845
2302.01860	0.38820
2301.05420	0.38862
2300.08980	0.38821
2299.12540	0.38522
2298.16101	0.38316
2297.19661	0.38391
2296.23221	0.38428
2295.26781	0.38361
2294.30341	0.38311
2293.33902	0.38328
2292.37462	0.38408
2291.41022	0.38409
2290.44582	0.38293
2289.48142	0.38156
2288.51702	0.38018
2287.55263	0.37932
2286.58823	0.37929
2285.62383	0.37868
2284.65943	0.37697
2283.69503	0.37560
2282.73063	0.37565
2281.76624	0.37597
2280.80184	0.37416
2279.83744	0.37093
2278.87304	0.36918
2277.90864	0.36946
2276.94425	0.37016
2275.97985	0.36997
2275.01545	0.36940
2274.05105	0.36914
2273.08665	0.36785
2272.12225	0.36445
2271.15786	0.36108
2270.19346	0.36028
2269.22906	0.35915
2268.26466	0.35479
2267.30026	0.35087
2266.33586	0.35072
2265.37147	0.35371
2264.40707	0.35615
2263.44267	0.35486
2262.47827	0.35260
2261.51387	0.35071
2260.54947	0.34744
2259.58508	0.34556
2258.62068	0.34683
2257.65628	0.34831
2256.69188	0.34809
2255.72748	0.34527
2254.76309	0.34002
2253.79869	0.33731
2252.83429	0.34028
2251.86989	0.34329
2250.90549	0.34048
2249.94109	0.33455
2248.97670	0.33371
2248.01230	0.34040
2247.04790	0.34753
2246.08350	0.34933
2245.11910	0.34724
2244.15470	0.34561
2243.19031	0.34596
2242.22591	0.34612
2241.26151	0.34530
2240.29711	0.34545
2239.33271	0.34709
2238.36832	0.34921
2237.40392	0.35102
2236.43952	0.35132
2235.47512	0.35024
2234.51072	0.35093
2233.54632	0.35436
2232.58193	0.35594
2231.61753	0.35507
2230.65313	0.35751
2229.68873	0.36190
2228.72433	0.36392
2227.75993	0.36681
2226.79554	0.37052
2225.83114	0.37018
2224.86674	0.36818
2223.90234	0.37032
2222.93794	0.37719
2221.97355	0.38431
2221.00915	0.38688
2220.04475	0.38660
2219.08035	0.38645
2218.11595	0.38600
2217.15155	0.38796
2216.18716	0.39250
2215.22276	0.39565
2214.25836	0.39891
2213.29396	0.40349
2212.32956	0.40701
2211.36516	0.41054
2210.40077	0.41488
2209.43637	0.41769
2208.47197	0.41809
2207.50757	0.41810
2206.54317	0.42048
2205.57878	0.42346
2204.61438	0.42481
2203.64998	0.42588
2202.68558	0.42518
2201.72118	0.42348
2200.75678	0.42429
2199.79239	0.42463
2198.82799	0.42327
2197.86359	0.42330
2196.89919	0.42443
2195.93479	0.42709
2194.97039	0.43084
2194.00600	0.43088
2193.04160	0.42643
2192.07720	0.42120
2191.11280	0.41641
2190.14840	0.41302
2189.18401	0.41430
2188.21961	0.41722
2187.25521	0.41380
2186.29081	0.40602
2185.32641	0.40254
2184.36201	0.40443
2183.39762	0.40460
2182.43322	0.39934
2181.46882	0.39262
2180.50442	0.38544
2179.54002	0.37902
2178.57562	0.37864
2177.61123	0.38245
2176.64683	0.38376
2175.68243	0.38105
2174.71803	0.37810
2173.75363	0.37641
2172.78924	0.37428
2171.82484	0.37316
2170.86044	0.37345
2169.89604	0.37243
2168.93164	0.37111
2167.96724	0.36947
2167.00285	0.36521
2166.03845	0.36363
2165.07405	0.36653
2164.10965	0.36479
2163.14525	0.35898
2162.18085	0.35621
2161.21646	0.35243
2160.25206	0.33634
2159.28766	0.30682
2158.32326	0.28600
2157.35886	0.28698
2156.39447	0.29405
2155.43007	0.29659
2154.46567	0.29836
2153.50127	0.30143
2152.53687	0.30254
2151.57247	0.30211
2150.60808	0.30491
2149.64368	0.30940
2148.67928	0.30859
2147.71488	0.30071
2146.75048	0.29309
2145.78608	0.29063
2144.82169	0.28731
2143.85729	0.28150
2142.89289	0.27930
2141.92849	0.28058
2140.96409	0.28211
2139.99969	0.28230
2139.03530	0.27960
2138.07090	0.27729
2137.10650	0.27755
2136.14210	0.27659
2135.17770	0.27324
2134.21331	0.26950
2133.24891	0.26862
2132.28451	0.27232
2131.32011	0.27771
2130.35571	0.28098
2129.39131	0.27935
2128.42692	0.27474
2127.46252	0.27141
2126.49812	0.27005
2125.53372	0.27085
2124.56932	0.27131
2123.60492	0.26796
2122.64053	0.26458
2121.67613	0.26523
2120.71173	0.26696
2119.74733	0.26632
2118.78293	0.26449
2117.81854	0.26541
2116.85414	0.26894
2115.88974	0.26996
2114.92534	0.26817
2113.96094	0.26611
2112.99654	0.26273
2112.03215	0.25914
2111.06775	0.25808
2110.10335	0.25841
2109.13895	0.25764
2108.17455	0.25571
2107.21015	0.25313
2106.24576	0.24921
2105.28136	0.24488
2104.31696	0.24380
2103.35256	0.24629
2102.38816	0.24607
2101.42377	0.24066
2100.45937	0.23574
2099.49497	0.23455
2098.53057	0.23555
2097.56617	0.23595
2096.60177	0.23410
2095.63738	0.23135
2094.67298	0.22823
2093.70858	0.22507
2092.74418	0.22454
2091.77978	0.22594
2090.81538	0.22674
2089.85099	0.22745
2088.88659	0.22681
2087.92219	0.22401
2086.95779	0.22360
2085.99339	0.22621
2085.02900	0.22590
2084.06460	0.22162
2083.10020	0.21790
2082.13580	0.21675
2081.17140	0.21787
2080.20700	0.21982
2079.24261	0.21976
2078.27821	0.21642
2077.31381	0.21284
2076.34941	0.21341
2075.38501	0.21722
2074.42061	0.22053
2073.45622	0.22126
2072.49182	0.21895
2071.52742	0.21585
2070.56302	0.21327
2069.59862	0.21121
2068.63423	0.21116
2067.66983	0.21374
2066.70543	0.21753
2065.74103	0.21936
2064.77663	0.21766
2063.81223	0.21682
2062.84784	0.21945
2061.88344	0.22130
2060.91904	0.22131
2059.95464	0.22091
2058.99024	0.21867
2058.02584	0.21681
2057.06145	0.21909
2056.09705	0.22280
2055.13265	0.22063
2054.16825	0.21380
2053.20385	0.21436
2052.23946	0.22421
2051.27506	0.23136
2050.31066	0.22873
2049.34626	0.22016
2048.38186	0.21029
2047.41746	0.20342
2046.45307	0.20356
2045.48867	0.20661
2044.52427	0.20878
2043.55987	0.21023
2042.59547	0.21045
2041.63107	0.21191
2040.66668	0.21511
2039.70228	0.21521
2038.73788	0.20964
2037.77348	0.20372
2036.80908	0.20163
2035.84469	0.19811
2034.88029	0.19123
2033.91589	0.18956
2032.95149	0.19505
2031.98709	0.19825
2031.02269	0.19797
2030.05830	0.19918
2029.09390	0.20110
2028.12950	0.20250
2027.16510	0.20348
2026.20070	0.20401
2025.23630	0.20239
2024.27191	0.20084
2023.30751	0.20387
2022.34311	0.20588
2021.37871	0.20165
2020.41431	0.19519
2019.44991	0.19342
2018.48552	0.20065
2017.52112	0.21032
2016.55672	0.21167
2015.59232	0.20734
2014.62792	0.20692
2013.66353	0.20962
2012.69913	0.21076
2011.73473	0.21136
2010.77033	0.21234
2009.80593	0.21162
2008.84153	0.20852
2007.87714	0.20692
2006.91274	0.20857
2005.94834	0.21171
2004.98394	0.21650
2004.01954	0.22216
2003.05514	0.22871
2002.09075	0.23596
2001.12635	0.23848
2000.16195	0.23421
1999.19755	0.22995
1998.23315	0.23127
1997.26876	0.23618
1996.30436	0.24155
1995.33996	0.24683
1994.37556	0.25016
1993.41116	0.25201
1992.44676	0.25566
1991.48237	0.25715
1990.51797	0.25346
1989.55357	0.25278
1988.58917	0.25857
1987.62477	0.26272
1986.66037	0.26219
1985.69598	0.26261
1984.73158	0.26613
1983.76718	0.27026
1982.80278	0.27256
1981.83838	0.27318
1980.87399	0.27535
1979.90959	0.27979
1978.94519	0.28071
1977.98079	0.27591
1977.01639	0.27402
1976.05199	0.27631
1975.08760	0.27661
1974.12320	0.27803
1973.15880	0.28309
1972.19440	0.29158
1971.23000	0.30267
1970.26560	0.30843
1969.30121	0.30750
1968.33681	0.30690
1967.37241	0.30906
1966.40801	0.31358
1965.44361	0.31750
1964.47922	0.32061
1963.51482	0.32870
1962.55042	0.33972
1961.58602	0.34435
1960.62162	0.34061
1959.65722	0.33735
1958.69283	0.34210
1957.72843	0.34919
1956.76403	0.35425
1955.79963	0.36161
1954.83523	0.36936
1953.87083	0.37457
1952.90644	0.38003
1951.94204	0.38603
1950.97764	0.39163
1950.01324	0.39500
1949.04884	0.39459
1948.08445	0.39452
1947.12005	0.39767
1946.15565	0.40084
1945.19125	0.40114
1944.22685	0.40130
1943.26245	0.40645
1942.29806	0.41314
1941.33366	0.41177
1940.36926	0.40482
1939.40486	0.40113
1938.44046	0.40252
1937.47606	0.40456
1936.51167	0.40416
1935.54727	0.40270
1934.58287	0.40235
1933.61847	0.40161
1932.65407	0.39890
1931.68968	0.39587
1930.72528	0.39388
1929.76088	0.39282
1928.79648	0.39313
1927.83208	0.39457
1926.86768	0.39417
1925.90329	0.39078
1924.93889	0.38875
1923.97449	0.39198
1923.01009	0.39807
1922.04569	0.40015
1921.08129	0.39626
1920.11690	0.39027
1919.15250	0.38736
1918.18810	0.38900
1917.22370	0.38883
1916.25930	0.38548
1915.29490	0.38333
1914.33051	0.38171
1913.36611	0.37961
1912.40171	0.37810
1911.43731	0.37725
1910.47291	0.37681
1909.50852	0.37584
1908.54412	0.37393
1907.57972	0.37118
1906.61532	0.36727
1905.65092	0.36357
1904.68652	0.36081
1903.72213	0.35763
1902.75773	0.35527
1901.79333	0.35521
1900.82893	0.35463
1899.86453	0.35151
1898.90013	0.34751
1897.93574	0.34403
1896.97134	0.34153
1896.00694	0.34128
1895.04254	0.34267
1894.07814	0.34132
1893.11375	0.33612
1892.14935	0.33104
1891.18495	0.32934
1890.22055	0.33155
1889.25615	0.33385
1888.29175	0.33206
1887.32736	0.32810
1886.36296	0.32418
1885.39856	0.32070
1884.43416	0.31833
1883.46976	0.31709
1882.50536	0.31666
1881.54097	0.31610
1880.57657	0.31377
1879.61217	0.31018
1878.64777	0.30729
1877.68337	0.30585
1876.71898	0.30478
1875.75458	0.30328
1874.79018	0.30178
1873.82578	0.29955
1872.86138	0.29616
1871.89698	0.29302
1870.93259	0.29218
1869.96819	0.29589
1869.00379	0.30078
1868.03939	0.29914
1867.07499	0.29254
1866.11059	0.28649
1865.14620	0.28228
1864.18180	0.27959
1863.21740	0.27837
1862.25300	0.27649
1861.28860	0.27234
1860.32421	0.26859
1859.35981	0.26801
1858.39541	0.26873
1857.43101	0.26806
1856.46661	0.26681
1855.50221	0.26511
1854.53782	0.26208
1853.57342	0.25914
1852.60902	0.25704
1851.64462	0.25551
1850.68022	0.25457
1849.71582	0.25384
1848.75143	0.25323
1847.78703	0.25186
1846.82263	0.24819
1845.85823	0.24495
1844.89383	0.24855
1843.92944	0.25475
1842.96504	0.25070
1842.00064	0.24184
1841.03624	0.23532
1840.07184	0.23101
1839.10744	0.22789
1838.14305	0.22681
1837.17865	0.22709
1836.21425	0.22542
1835.24985	0.22154
1834.28545	0.21869
1833.32105	0.21749
1832.35666	0.21596
1831.39226	0.21591
1830.42786	0.22108
1829.46346	0.22438
1828.49906	0.21793
1827.53467	0.20937
1826.57027	0.20727
1825.60587	0.21238
1824.64147	0.21372
1823.67707	0.20730
1822.71267	0.20155
1821.74828	0.19885
1820.78388	0.19631
1819.81948	0.19260
1818.85508	0.19023
1817.89068	0.19045
1816.92628	0.18961
1815.96189	0.18660
1814.99749	0.18369
1814.03309	0.18215
1813.06869	0.18235
1812.10429	0.18393
1811.13990	0.18577
1810.17550	0.18466
1809.21110	0.18082
1808.24670	0.17871
1807.28230	0.17806
1806.31790	0.17608
1805.35351	0.17346
1804.38911	0.17182
1803.42471	0.17325
1802.46031	0.17721
1801.49591	0.17882
1800.53151	0.17830
1799.56712	0.17737
1798.60272	0.17375
1797.63832	0.17035
1796.67392	0.17061
1795.70952	0.17045
1794.74512	0.16690
1793.78073	0.16613
1792.81633	0.17305
1791.85193	0.17856
1790.88753	0.17558
1789.92313	0.16918
1788.95874	0.16268
1787.99434	0.15808
1787.02994	0.15669
1786.06554	0.15819
1785.10114	0.16048
1784.13674	0.15943
1783.17235	0.15633
1782.20795	0.15634
1781.24355	0.15989
1780.27915	0.16156
1779.31475	0.15810
1778.35035	0.15321
1777.38596	0.15131
1776.42156	0.15361
1775.45716	0.15556
1774.49276	0.15412
1773.52836	0.15668
1772.56397	0.16680
1771.59957	0.17009
1770.63517	0.16251
1769.67077	0.15622
1768.70637	0.15755
1767.74197	0.15936
1766.77758	0.15399
1765.81318	0.14825
1764.84878	0.14612
1763.88438	0.14621
1762.91998	0.15007
1761.95558	0.15676
1760.99119	0.15660
1760.02679	0.15088
1759.06239	0.14757
1758.09799	0.14832
1757.13359	0.15145
1756.16920	0.15155
1755.20480	0.14743
1754.24040	0.14403
1753.27600	0.14267
1752.31160	0.14585
1751.34720	0.15440
1750.38281	0.15721
1749.41841	0.15482
1748.45401	0.15337
1747.48961	0.14986
1746.52521	0.14473
1745.56081	0.14203
1744.59642	0.14278
1743.63202	0.14414
1742.66762	0.14057
1741.70322	0.13433
1740.73882	0.13432
1739.77443	0.13979
1738.81003	0.13811
1737.84563	0.13232
1736.88123	0.12918
1735.91683	0.12957
1734.95243	0.13959
1733.98804	0.15615
1733.02364	0.15223
1732.05924	0.13976
1731.09484	0.13541
1730.13044	0.13870
1729.16604	0.13968
1728.20165	0.13904
1727.23725	0.14444
1726.27285	0.15659
1725.30845	0.17307
1724.34405	0.19474
1723.37966	0.22142
1722.41526	0.24729
1721.45086	0.26797
1720.48646	0.28382
1719.52206	0.30056
1718.55766	0.33008
1717.59327	0.36407
1716.62887	0.37519
1715.66447	0.37713
1714.70007	0.37766
1713.73567	0.36462
1712.77127	0.34102
1711.80688	0.31897
1710.84248	0.30191
1709.87808	0.28714
1708.91368	0.27362
1707.94928	0.26598
1706.98489	0.26751
1706.02049	0.27390
1705.05609	0.28099
1704.09169	0.28742
1703.12729	0.28909
1702.16289	0.28838
1701.19850	0.29761
1700.23410	0.31595
1699.26970	0.30057
1698.30530	0.27560
1697.34090	0.25995
1696.37650	0.25746
1695.41211	0.25375
1694.44771	0.23639
1693.48331	0.22080
1692.51891	0.21268
1691.55451	0.20839
1690.59012	0.20463
1689.62572	0.20078
1688.66132	0.19550
1687.69692	0.18807
1686.73252	0.18117
1685.76812	0.18266
1684.80373	0.20384
1683.83933	0.21976
1682.87493	0.20600
1681.91053	0.19326
1680.94613	0.19294
1679.98173	0.19808
1679.01734	0.20002
1678.05294	0.20264
1677.08854	0.20941
1676.12414	0.22366
1675.15974	0.24226
1674.19534	0.24375
1673.23095	0.23700
1672.26655	0.23591
1671.30215	0.23656
1670.33775	0.23457
1669.37335	0.23401
1668.40896	0.22632
1667.44456	0.21002
1666.48016	0.19659
1665.51576	0.18917
1664.55136	0.18562
1663.58696	0.18663
1662.62257	0.18856
1661.65817	0.18278
1660.69377	0.17318
1659.72937	0.16615
1658.76497	0.16249
1657.80057	0.16089
1656.83618	0.16055
1655.87178	0.16277
1654.90738	0.17063
1653.94298	0.18872
1652.97858	0.20511
1652.01419	0.18786
1651.04979	0.16697
1650.08539	0.15627
1649.12099	0.15770
1648.15659	0.16751
1647.19219	0.17460
1646.22780	0.17262
1645.26340	0.16337
1644.29900	0.15314
1643.33460	0.14697
1642.37020	0.14445
1641.40580	0.14332
1640.44141	0.14324
1639.47701	0.14404
1638.51261	0.14704
1637.54821	0.15216
1636.58381	0.15920
1635.61942	0.16905
1634.65502	0.16431
1633.69062	0.14942
1632.72622	0.14007
1631.76182	0.13626
1630.79742	0.13394
1629.83303	0.13338
1628.86863	0.13698
1627.90423	0.14217
1626.93983	0.14086
1625.97543	0.13500
1625.01103	0.13303
1624.04664	0.13929
1623.08224	0.14453
1622.11784	0.13821
1621.15344	0.12951
1620.18904	0.12538
1619.22465	0.12456
1618.26025	0.12661
1617.29585	0.13574
1616.33145	0.14243
1615.36705	0.13350
1614.40265	0.12283
1613.43826	0.11752
1612.47386	0.11515
1611.50946	0.11326
1610.54506	0.11264
1609.58066	0.11288
1608.61626	0.11162
1607.65187	0.10891
1606.68747	0.10571
1605.72307	0.10235
1604.75867	0.10003
1603.79427	0.09811
1602.82988	0.09524
1601.86548	0.09283
1600.90108	0.09150
1599.93668	0.08978
1598.97228	0.08743
1598.00788	0.08530
1597.04349	0.08383
1596.07909	0.08323
1595.11469	0.08329
1594.15029	0.08210
1593.18589	0.07910
1592.22149	0.07640
1591.25710	0.07489
1590.29270	0.07399
1589.32830	0.07258
1588.36390	0.07023
1587.39950	0.06794
1586.43511	0.06667
1585.47071	0.06604
1584.50631	0.06507
1583.54191	0.06383
1582.57751	0.06291
1581.61311	0.06219
1580.64872	0.06117
1579.68432	0.06016
1578.71992	0.05993
1577.75552	0.06239
1576.79112	0.07154
1575.82672	0.07807
1574.86233	0.07014
1573.89793	0.06082
1572.93353	0.05642
1571.96913	0.05557
1571.00473	0.05933
1570.04034	0.06975
1569.07594	0.07308
1568.11154	0.06301
1567.14714	0.05440
1566.18274	0.05425
1565.21834	0.05925
1564.25395	0.06050
1563.28955	0.05686
1562.32515	0.05455
1561.36075	0.05906
1560.39635	0.07891
1559.43195	0.11274
1558.46756	0.12020
1557.50316	0.09743
1556.53876	0.07682
1555.57436	0.06865
1554.60996	0.07163
1553.64556	0.07189
1552.68117	0.06600
1551.71677	0.06459
1550.75237	0.07094
1549.78797	0.07598
1548.82357	0.07185
1547.85918	0.06704
1546.89478	0.06917
1545.93038	0.08086
1544.96598	0.09565
1544.00158	0.10120
1543.03718	0.10360
1542.07279	0.11082
1541.10839	0.11939
1540.14399	0.13151
1539.17959	0.14117
1538.21519	0.13216
1537.25079	0.12155
1536.28640	0.11939
1535.32200	0.12589
1534.35760	0.14277
1533.39320	0.16383
1532.42880	0.17154
1531.46441	0.17228
1530.50001	0.17705
1529.53561	0.18943
1528.57121	0.21079
1527.60681	0.23364
1526.64241	0.25311
1525.67802	0.27670
1524.71362	0.29753
1523.74922	0.31198
1522.78482	0.33534
1521.82042	0.37545
1520.85602	0.41267
1519.89163	0.42356
1518.92723	0.42469
1517.96283	0.44045
1516.99843	0.46946
1516.03403	0.47862
1515.06964	0.46976
1514.10524	0.45886
1513.14084	0.45243
1512.17644	0.44873
1511.21204	0.44094
1510.24764	0.43204
1509.28325	0.42674
1508.31885	0.42457
1507.35445	0.42653
1506.39005	0.41828
1505.42565	0.38404
1504.46125	0.35013
1503.49686	0.32782
1502.53246	0.31545
1501.56806	0.30792
1500.60366	0.30190
1499.63926	0.30076
1498.67487	0.30299
1497.71047	0.30210
1496.74607	0.30508
1495.78167	0.31082
1494.81727	0.30913
1493.85287	0.30906
1492.88848	0.31687
1491.92408	0.33204
1490.95968	0.35907
1489.99528	0.39278
1489.03088	0.41311
1488.06648	0.43019
1487.10209	0.45842
1486.13769	0.48716
1485.17329	0.51215
1484.20889	0.54110
1483.24449	0.57431
1482.28010	0.61009
1481.31570	0.64701
1480.35130	0.67834
1479.38690	0.70127
1478.42250	0.71842
1477.45810	0.73497
1476.49371	0.75565
1475.52931	0.76645
1474.56491	0.76487
1473.60051	0.77226
1472.63611	0.79560
1471.67171	0.81188
1470.70732	0.81351
1469.74292	0.81777
1468.77852	0.83452
1467.81412	0.85852
1466.84972	0.88175
1465.88533	0.91138
1464.92093	0.95844
1463.95653	0.99626
1462.99213	1.01440
1462.02773	1.03376
1461.06333	1.05642
1460.09894	1.08012
1459.13454	1.10745
1458.17014	1.13873
1457.20574	1.18138
1456.24134	1.21297
1455.27694	1.20860
1454.31255	1.19367
1453.34815	1.18503
1452.38375	1.18216
1451.41935	1.17885
1450.45495	1.16980
1449.49055	1.16062
1448.52616	1.16062
1447.56176	1.16406
1446.59736	1.15792
1445.63296	1.14730
1444.66856	1.14029
1443.70417	1.13342
1442.73977	1.12358
1441.77537	1.11007
1440.81097	1.09208
1439.84657	1.07028
1438.88217	1.04466
1437.91778	1.02092
1436.95338	1.00382
1435.98898	0.97634
1435.02458	0.93371
1434.06018	0.89272
1433.09578	0.85792
1432.13139	0.82459
1431.16699	0.79345
1430.20259	0.76528
1429.23819	0.73582
1428.27379	0.70434
1427.30940	0.67469
1426.34500	0.64896
1425.38060	0.62855
1424.41620	0.61392
1423.45180	0.59767
1422.48740	0.57688
1421.52301	0.55821
1420.55861	0.54856
1419.59421	0.55196
1418.62981	0.55198
1417.66541	0.54013
1416.70101	0.52941
1415.73662	0.52468
1414.77222	0.52569
1413.80782	0.53242
1412.84342	0.54479
1411.87902	0.56213
1410.91463	0.58334
1409.95023	0.60727
1408.98583	0.63353
1408.02143	0.66155
1407.05703	0.68921
1406.09263	0.71724
1405.12824	0.74557
1404.16384	0.76271
1403.19944	0.76510
1402.23504	0.76133
1401.27064	0.75372
1400.30624	0.74360
1399.34185	0.73106
1398.37745	0.70832
1397.41305	0.67675
1396.44865	0.64632
1395.48425	0.62018
1394.51986	0.59067
1393.55546	0.55387
1392.59106	0.51762
1391.62666	0.48619
1390.66226	0.45826
1389.69786	0.43266
1388.73347	0.41160
1387.76907	0.39370
1386.80467	0.37270
1385.84027	0.34879
1384.87587	0.32698
1383.91147	0.30870
1382.94708	0.29232
1381.98268	0.27711
1381.01828	0.26320
1380.05388	0.25072
1379.08948	0.23923
1378.12509	0.22800
1377.16069	0.21763
1376.19629	0.21014
1375.23189	0.20617
1374.26749	0.20103
1373.30309	0.19078
1372.33870	0.17856
1371.37430	0.16827
1370.40990	0.16119
1369.44550	0.15690
1368.48110	0.15259
1367.51670	0.14565
1366.55231	0.13815
1365.58791	0.13210
1364.62351	0.12940
1363.65911	0.13078
1362.69471	0.12990
1361.73032	0.12328
1360.76592	0.11560
1359.80152	0.10978
1358.83712	0.10539
1357.87272	0.10156
1356.90832	0.09809
1355.94393	0.09528
1354.97953	0.09255
1354.01513	0.08863
1353.05073	0.08464
1352.08633	0.08176
1351.12193	0.07934
1350.15754	0.07691
1349.19314	0.07415
1348.22874	0.07108
1347.26434	0.06865
1346.29994	0.06716
1345.33555	0.06533
1344.37115	0.06285
1343.40675	0.06045
1342.44235	0.05932
1341.47795	0.06143
1340.51355	0.06560
1339.54916	0.06646
1338.58476	0.06209
1337.62036	0.05689
1336.65596	0.05334
1335.69156	0.05022
1334.72716	0.04735
1333.76277	0.04513
1332.79837	0.04320
1331.83397	0.04145
1330.86957	0.04026
1329.90517	0.03938
1328.94077	0.03824
1327.97638	0.03723
1327.01198	0.03689
1326.04758	0.03661
1325.08318	0.03570
1324.11878	0.03456
1323.15439	0.03360
1322.18999	0.03279
1321.22559	0.03228
1320.26119	0.03277
1319.29679	0.03399
1318.33239	0.03417
1317.36800	0.03291
1316.40360	0.03068
1315.43920	0.02859
1314.47480	0.02861
1313.51040	0.03028
1312.54600	0.03103
1311.58161	0.03017
1310.61721	0.02886
1309.65281	0.02782
1308.68841	0.02703
1307.72401	0.02620
1306.75962	0.02579
1305.79522	0.02644
1304.83082	0.02704
1303.86642	0.02652
1302.90202	0.02557
1301.93762	0.02541
1300.97323	0.02575
1300.00883	0.02545
1299.04443	0.02495
1298.08003	0.02486
1297.11563	0.02476
1296.15123	0.02453
1295.18684	0.02443
1294.22244	0.02449
1293.25804	0.02494
1292.29364	0.02586
1291.32924	0.02649
1290.36485	0.02619
1289.40045	0.02600
1288.43605	0.02686
1287.47165	0.02806
1286.50725	0.02850
1285.54285	0.02795
1284.57846	0.02749
1283.61406	0.02825
1282.64966	0.02988
1281.68526	0.03152
1280.72086	0.03298
1279.75646	0.03397
1278.79207	0.03397
1277.82767	0.03379
1276.86327	0.03482
1275.89887	0.03674
1274.93447	0.03847
1273.97008	0.04007
1273.00568	0.04193
1272.04128	0.04396
1271.07688	0.04597
1270.11248	0.04758
1269.14808	0.04886
1268.18369	0.05054
1267.21929	0.05254
1266.25489	0.05406
1265.29049	0.05528
1264.32609	0.05692
1263.36169	0.05919
1262.39730	0.06207
1261.43290	0.06527
1260.46850	0.06810
1259.50410	0.07035
1258.53970	0.07265
1257.57531	0.07541
1256.61091	0.07861
1255.64651	0.08196
1254.68211	0.08450
1253.71771	0.08634
1252.75331	0.08900
1251.78892	0.09269
1250.82452	0.09652
1249.86012	0.10031
1248.89572	0.10418
1247.93132	0.10786
1246.96692	0.11119
1246.00253	0.11442
1245.03813	0.11772
1244.07373	0.12088
1243.10933	0.12367
1242.14493	0.12703
1241.18054	0.13203
1240.21614	0.13759
1239.25174	0.14243
1238.28734	0.14727
1237.32294	0.15271
1236.35854	0.15819
1235.39415	0.16374
1234.42975	0.16990
1233.46535	0.17682
1232.50095	0.18394
1231.53655	0.19084
1230.57215	0.19792
1229.60776	0.20544
1228.64336	0.21348
1227.67896	0.22228
1226.71456	0.23152
1225.75016	0.24112
1224.78577	0.25154
1223.82137	0.26238
1222.85697	0.27294
1221.89257	0.28361
1220.92817	0.29515
1219.96377	0.30722
1218.99938	0.31901
1218.03498	0.33049
1217.07058	0.34151
1216.10618	0.35124
1215.14178	0.35986
1214.17738	0.36814
1213.21299	0.37559
1212.24859	0.38112
1211.28419	0.38491
1210.31979	0.38753
1209.35539	0.38928
1208.39099	0.39076
1207.42660	0.39266
1206.46220	0.39499
1205.49780	0.39660
1204.53340	0.39721
1203.56900	0.39814
1202.60461	0.39916
1201.64021	0.39937
1200.67581	0.40009
1199.71141	0.40237
1198.74701	0.40515
1197.78261	0.40741
1196.81822	0.40850
1195.85382	0.40796
1194.88942	0.40616
1193.92502	0.40401
1192.96062	0.40162
1191.99622	0.39757
1191.03183	0.39158
1190.06743	0.38472
1189.10303	0.37635
1188.13863	0.36531
1187.17423	0.35211
1186.20984	0.33793
1185.24544	0.32377
1184.28104	0.31021
1183.31664	0.29690
1182.35224	0.28351
1181.38784	0.27033
1180.42345	0.25729
1179.45905	0.24412
1178.49465	0.23134
1177.53025	0.21980
1176.56585	0.20923
1175.60145	0.19892
1174.63706	0.18910
1173.67266	0.17977
1172.70826	0.17051
1171.74386	0.16206
1170.77946	0.15492
1169.81507	0.14817
1168.85067	0.14142
1167.88627	0.13551
1166.92187	0.13066
1165.95747	0.12594
1164.99307	0.12065
1164.02868	0.11572
1163.06428	0.11202
1162.09988	0.10893
1161.13548	0.10588
1160.17108	0.10278
1159.20668	0.09970
1158.24229	0.09661
1157.27789	0.09407
1156.31349	0.09297
1155.34909	0.09242
1154.38469	0.09093
1153.42030	0.08863
1152.45590	0.08646
1151.49150	0.08518
1150.52710	0.08483
1149.56270	0.08479
1148.59830	0.08450
1147.63391	0.08353
1146.66951	0.08223
1145.70511	0.08160
1144.74071	0.08158
1143.77631	0.08119
1142.81191	0.08031
1141.84752	0.08018
1140.88312	0.08121
1139.91872	0.08237
1138.95432	0.08318
1137.98992	0.08345
1137.02553	0.08337
1136.06113	0.08405
1135.09673	0.08545
1134.13233	0.08690
1133.16793	0.08829
1132.20353	0.08934
1131.23914	0.09049
1130.27474	0.09277
1129.31034	0.09619
1128.34594	0.10033
1127.38154	0.10446
1126.41714	0.10816
1125.45275	0.11192
1124.48835	0.11595
1123.52395	0.12087
1122.55955	0.12788
1121.59515	0.13726
1120.63076	0.14810
1119.66636	0.15970
1118.70196	0.17152
1117.73756	0.18321
1116.77316	0.19586
1115.80876	0.21053
1114.84437	0.22681
1113.87997	0.24464
1112.91557	0.26437
1111.95117	0.28537
1110.98677	0.30614
1110.02237	0.32606
1109.05798	0.34633
1108.09358	0.36813
1107.12918	0.39065
1106.16478	0.41229
1105.20038	0.43316
1104.23598	0.45460
1103.27159	0.47670
1102.30719	0.49815
1101.34279	0.51862
1100.37839	0.53946
1099.41399	0.56160
1098.44960	0.58437
1097.48520	0.60680
1096.52080	0.62853
1095.55640	0.64972
1094.59200	0.67217
1093.62760	0.69703
1092.66321	0.72238
1091.69881	0.74703
1090.73441	0.77174
1089.77001	0.79722
1088.80561	0.82391
1087.84121	0.85162
1086.87682	0.87995
1085.91242	0.90901
1084.94802	0.93926
1083.98362	0.97107
1083.01922	1.00422
1082.05483	1.03863
1081.09043	1.07540
1080.12603	1.11499
1079.16163	1.15624
1078.19723	1.19833
1077.23283	1.23965
1076.26844	1.27769
1075.30404	1.31180
1074.33964	1.34182
1073.37524	1.36667
1072.41084	1.38673
1071.44644	1.40406
1070.48205	1.41969
1069.51765	1.43358
1068.55325	1.44642
1067.58885	1.45930
1066.62445	1.47336
1065.66006	1.48942
1064.69566	1.50729
1063.73126	1.52620
1062.76686	1.54552
1061.80246	1.56586
1060.83806	1.58861
1059.87367	1.61276
1058.90927	1.63551
1057.94487	1.65676
1056.98047	1.67741
1056.01607	1.69708
1055.05167	1.71600
1054.08728	1.73400
1053.12288	1.74974
1052.15848	1.76318
1051.19408	1.77620
1050.22968	1.78922
1049.26529	1.80071
1048.30089	1.81059
1047.33649	1.81971
1046.37209	1.82774
1045.40769	1.83416
1044.44329	1.83868
1043.47890	1.84073
1042.51450	1.83999
1041.55010	1.83643
1040.58570	1.82949
1039.62130	1.81834
1038.65690	1.80313
1037.69251	1.78502
1036.72811	1.76459
1035.76371	1.74206
1034.79931	1.71907
1033.83491	1.69757
1032.87052	1.67854
1031.90612	1.66366
1030.94172	1.65444
1029.97732	1.65039
1029.01292	1.65108
1028.04852	1.65648
1027.08413	1.66601
1026.11973	1.67834
1025.15533	1.69048
1024.19093	1.70063
1023.22653	1.70876
1022.26213	1.71333
1021.29774	1.71384
1020.33334	1.71173
1019.36894	1.70653
1018.40454	1.69759
1017.44014	1.68594
1016.47575	1.67142
1015.51135	1.65410
1014.54695	1.63612
1013.58255	1.61793
1012.61815	1.59831
1011.65375	1.57830
1010.68936	1.55955
1009.72496	1.54154
1008.76056	1.52363
1007.79616	1.50526
1006.83176	1.48602
1005.86736	1.46756
1004.90297	1.45071
1003.93857	1.43396
1002.97417	1.41662
1002.00977	1.39978
1001.04537	1.38412
1000.08098	1.36872
999.11658	1.35299
998.15218	1.33736
997.18778	1.32253
996.22338	1.30867
995.25898	1.29518
994.29459	1.28188
993.33019	1.26885
992.36579	1.25646
991.40139	1.24571
990.43699	1.23658
989.47259	1.22887
988.50820	1.22317
987.54380	1.21930
986.57940	1.21729
985.61500	1.21841
984.65060	1.22280
983.68620	1.22939
982.72181	1.23829
981.75741	1.24960
980.79301	1.26178
979.82861	1.27414
978.86421	1.28838
977.89982	1.30520
976.93542	1.32313
975.97102	1.34209
975.00662	1.36267
974.04222	1.38429
973.07782	1.40671
972.11343	1.42975
971.14903	1.45304
970.18463	1.47737
969.22023	1.50306
968.25583	1.52891
967.29143	1.55449
966.32704	1.57952
965.36264	1.60356
964.39824	1.62772
963.43384	1.65320
962.46944	1.67936
961.50505	1.70530
960.54065	1.73180
959.57625	1.75948
958.61185	1.78686
957.64745	1.81286
956.68305	1.83815
955.71866	1.86381
954.75426	1.89051
953.78986	1.91688
952.82546	1.94004
951.86106	1.95935
950.89666	1.97588
949.93227	1.98875
948.96787	1.99689
948.00347	2.00000
947.03907	1.99700
946.07467	1.98803
945.11028	1.97495
944.14588	1.95825
943.18148	1.93739
942.21708	1.91277
941.25268	1.88575
940.28828	1.85766
939.32389	1.82894
938.35949	1.79954
937.39509	1.76974
936.43069	1.73947
935.46629	1.70780
934.50189	1.67390
933.53750	1.63842
932.57310	1.60246
931.60870	1.56680
930.64430	1.53216
929.67990	1.49774
928.71551	1.46274
927.75111	1.42852
926.78671	1.39505
925.82231	1.36072
924.85791	1.32661
923.89351	1.29460
922.92912	1.26478
921.96472	1.23644
921.00032	1.20939
920.03592	1.18501
919.07152	1.16419
918.10712	1.14615
917.14273	1.13151
916.17833	1.12154
915.21393	1.11609
914.24953	1.11650
913.28513	1.12447
912.32074	1.13864
911.35634	1.15817
910.39194	1.18441
909.42754	1.21731
908.46314	1.25590
907.49874	1.29916
906.53435	1.34508
905.56995	1.39156
904.60555	1.43602
903.64115	1.47537
902.67675	1.50882
901.71235	1.53798
900.74796	1.56316
899.78356	1.58229
898.81916	1.59565
897.85476	1.60660
896.89036	1.61638
895.92597	1.62404
894.96157	1.62906
893.99717	1.63186
893.03277	1.63166
892.06837	1.62499
891.10397	1.61078
890.13958	1.59193
889.17518	1.57040
888.21078	1.54667
887.24638	1.52137
886.28198	1.49562
885.31758	1.47011
884.35319	1.44444
883.38879	1.41908
882.42439	1.39527
881.45999	1.37274
880.49559	1.35030
879.53120	1.32785
878.56680	1.30652
877.60240	1.28781
876.63800	1.27213
875.67360	1.25800
874.70920	1.24435
873.74481	1.23130
872.78041	1.21902
871.81601	1.20790
870.85161	1.19798
869.88721	1.18957
868.92281	1.18355
867.95842	1.17897
866.99402	1.17480
866.02962	1.17219
865.06522	1.17127
864.10082	1.17137
863.13642	1.17397
862.17203	1.17933
861.20763	1.18545
860.24323	1.19234
859.27883	1.20112
858.31443	1.21136
857.35004	1.22205
856.38564	1.23222
855.42124	1.24103
854.45684	1.24865
853.49244	1.25494
852.52804	1.25893
851.56365	1.26043
850.59925	1.25967
849.63485	1.25602
848.67045	1.24899
847.70605	1.23990
846.74165	1.22957
845.77726	1.21747
844.81286	1.20441
843.84846	1.19024
842.88406	1.17251
841.91966	1.15170
840.95527	1.13187
839.99087	1.11469
839.02647	1.09853
838.06207	1.08188
837.09767	1.06321
836.13327	1.04232
835.16888	1.02201
834.20448	1.00402
833.24008	0.98712
832.27568	0.97006
831.31128	0.95232
830.34688	0.93376
829.38249	0.91590
828.41809	0.90045
827.45369	0.88660
826.48929	0.87286
825.52489	0.85934
824.56050	0.84577
823.59610	0.83124
822.63170	0.81748
821.66730	0.80611
820.70290	0.79495
819.73850	0.78265
818.77411	0.77068
817.80971	0.75957
816.84531	0.74788
815.88091	0.73493
814.91651	0.72274
813.95211	0.71300
812.98772	0.70460
812.02332	0.69616
811.05892	0.68757
810.09452	0.67867
809.13012	0.66901
808.16573	0.65906
807.20133	0.65006
806.23693	0.64188
805.27253	0.63259
804.30813	0.62232
803.34373	0.61372
802.37934	0.60683
801.41494	0.59971
800.45054	0.59241
799.48614	0.58603
798.52174	0.58046
797.55734	0.57453
796.59295	0.56721
795.62855	0.55900
794.66415	0.55164
793.69975	0.54544
792.73535	0.53925
791.77096	0.53255
790.80656	0.52552
789.84216	0.51917
788.87776	0.51418
787.91336	0.51009
786.94896	0.50589
785.98457	0.50041
785.02017	0.49385
784.05577	0.48737
783.09137	0.48198
782.12697	0.47787
781.16257	0.47388
780.19818	0.46937
779.23378	0.46493
778.26938	0.46077
777.30498	0.45624
776.34058	0.45167
775.37619	0.44798
774.41179	0.44377
773.44739	0.43760
772.48299	0.43144
771.51859	0.42759
770.55419	0.42481
769.58980	0.42089
768.62540	0.41584
767.66100	0.41066
766.69660	0.40552
765.73220	0.39991
764.76780	0.39441
763.80341	0.39030
762.83901	0.38749
761.87461	0.38478
760.91021	0.38073
759.94581	0.37557
758.98142	0.37046
758.01702	0.36550
757.05262	0.36106
756.08822	0.35717
755.12382	0.35375
754.15942	0.35109
753.19503	0.34827
752.23063	0.34453
751.26623	0.34032
750.30183	0.33610
749.33743	0.33262
748.37303	0.32971
747.40864	0.32606
746.44424	0.32255
745.47984	0.32087
744.51544	0.31955
743.55104	0.31653
742.58664	0.31189
741.62225	0.30706
740.65785	0.30404
739.69345	0.30268
738.72905	0.30077
737.76465	0.29795
736.80026	0.29471
735.83586	0.29015
734.87146	0.28401
733.90706	0.27835
732.94266	0.27471
731.97826	0.27178
731.01387	0.26890
730.04947	0.26666
729.08507	0.26406
728.12067	0.26103
727.15627	0.25806
726.19187	0.25479
725.22748	0.25178
724.26308	0.24858
723.29868	0.24402
722.33428	0.23863
721.36988	0.23339
720.40549	0.22910
719.44109	0.22606
718.47669	0.22372
717.51229	0.22215
716.54789	0.22098
715.58349	0.21812
714.61910	0.21389
713.65470	0.21042
712.69030	0.20703
711.72590	0.20401
710.76150	0.20282
709.79710	0.20212
708.83271	0.20031
707.86831	0.19700
706.90391	0.19180
705.93951	0.18608
704.97511	0.18274
704.01072	0.18152
703.04632	0.18009
702.08192	0.17799
701.11752	0.17537
700.15312	0.17354
699.18872	0.17316
698.22433	0.17102
697.25993	0.16570
696.29553	0.16043
695.33113	0.15815
694.36673	0.15863
693.40233	0.15793
692.43794	0.15313
691.47354	0.14701
690.50914	0.14321
689.54474	0.14170
688.58034	0.13968
687.61595	0.13524
686.65155	0.13003
685.68715	0.12603
684.72275	0.12391
683.75835	0.12357
682.79395	0.12313
681.82956	0.12060
680.86516	0.11665
679.90076	0.11427
678.93636	0.11373
677.97196	0.11212
677.00756	0.10819
676.04317	0.10401
675.07877	0.10194
674.11437	0.10077
673.14997	0.09886
672.18557	0.09709
671.22118	0.09506
670.25678	0.09102
669.29238	0.08429
668.32798	0.07971
667.36358	0.08441
666.39918	0.08606
665.43479	0.08496
664.47039	0.08222
663.50599	0.07820
662.54159	0.07477
661.57719	0.07266
660.61279	0.07163
659.64840	0.07173
658.68400	0.07292
657.71960	0.07443
656.75520	0.07501
655.79080	0.07363
654.82641	0.07002
653.86201	0.06592
652.89761	0.06357
651.93321	0.06303
650.96881	0.06295
650.00441	0.06226
649.04002	0.06116
648.07562	0.06040
647.11122	0.05978
646.14682	0.05858
645.18242	0.05681
644.21802	0.05524
643.25363	0.05384
642.28923	0.05204
641.32483	0.05062
640.36043	0.05063
639.39603	0.05055
638.43163	0.04864
637.46724	0.04692
636.50284	0.04642
635.53844	0.04547
634.57404	0.04474
633.60964	0.04469
632.64525	0.04390
631.68085	0.04169
630.71645	0.03786
629.75205	0.03456
628.78765	0.03456
627.82325	0.03558
626.85886	0.03491
625.89446	0.03452
624.93006	0.03467
623.96566	0.03393
623.00126	0.03408
622.03686	0.03444
621.07247	0.03248
620.10807	0.03046
619.14367	0.03096
618.17927	0.03206
617.21487	0.03136
616.25048	0.02946
615.28608	0.02745
614.32168	0.02540
613.35728	0.02443
612.39288	0.02440
611.42848	0.02679
610.46409	0.02715
609.49969	0.02402
608.53529	0.01938
607.57089	0.01577
606.60649	0.01407
605.64209	0.01249
604.67770	0.01119
603.71330	0.01159
602.74890	0.01198
601.78450	0.01023
600.82010	0.00739
599.85571	0.00669
598.89131	0.00736
597.92691	0.00606
596.96251	0.00375
595.99811	0.00168
595.03371	0.00000
594.06932	0.00164
593.10492	0.00638
592.14052	0.00853
591.17612	0.00709
590.21172	0.00721
589.24732	0.01045
588.28293	0.01512
587.31853	0.02012
586.35413	0.02443
585.38973	0.02712
584.42533	0.03160
583.46094	0.03690
582.49654	0.04337
581.53214	0.05515
580.56774	0.07202
579.60334	0.09027
578.63894	0.11000
577.67455	0.13222
576.71015	0.15937
575.74575	0.19380
574.78135	0.23301
573.81695	0.27770
572.85255	0.33079
571.88816	0.38984
570.92376	0.45176
569.95936	0.51453
568.99496	0.57396
568.03056	0.62765
567.06617	0.67860
566.10177	0.72822
565.13737	0.77392
564.17297	0.81571
563.20857	0.85686
562.24417	0.89824
561.27978	0.93998
560.31538	0.98737
559.35098	1.04490
558.38658	1.11086
557.42218	1.18103
556.45778	1.25146
555.49339	1.31911
554.52899	1.38027
553.56459	1.42825
552.60019	1.45556
551.63579	1.46210
550.67140	1.45458
549.70700	1.43831
548.74260	1.41519
547.77820	1.38683
546.81380	1.35868
545.84940	1.33696
544.88501	1.32342
543.92061	1.31603
542.95621	1.31317
541.99181	1.31703
541.02741	1.32814
540.06301	1.34218
539.09862	1.35705
538.13422	1.37257
537.16982	1.38850
536.20542	1.40683
535.24102	1.42576
534.27663	1.44107
533.31223	1.45562
532.34783	1.47542
531.38343	1.49807
530.41903	1.51608
529.45463	1.53053
528.49024	1.54368
527.52584	1.55396
526.56144	1.56359
525.59704	1.57037
524.63264	1.57079
523.66824	1.56883
522.70385	1.56588
521.73945	1.55779
520.77505	1.54225
519.81065	1.52365
518.84625	1.50800
517.88185	1.49431
516.91746	1.47373
515.95306	1.44206
514.98866	1.40923
514.02426	1.38166
513.05986	1.35469
512.09547	1.32437
511.13107	1.28933
510.16667	1.24945
509.20227	1.20830
508.23787	1.16983
507.27347	1.13446
506.30908	1.10128
505.34468	1.06893
504.38028	1.03245
503.41588	0.99191
502.45148	0.95474
501.48708	0.92304
500.52269	0.89251
499.55829	0.85895
498.59389	0.82406
497.62949	0.79414
496.66509	0.76681
495.70070	0.73562
494.73630	0.70293
493.77190	0.67442
492.80750	0.64921
491.84310	0.62363
490.87870	0.59929
489.91431	0.57779
488.94991	0.55649
487.98551	0.53622
487.02111	0.51728
486.05671	0.49479
485.09231	0.46974
484.12792	0.44728
483.16352	0.42870
482.19912	0.41479
481.23472	0.40609
480.27032	0.39792
479.30593	0.38438
478.34153	0.36701
477.37713	0.34987
476.41273	0.33524
475.44833	0.32618
474.48393	0.32445
473.51954	0.32930
472.55514	0.33213
471.59074	0.32372
470.62634	0.31496
469.66194	0.31604
468.69754	0.32189
467.73315	0.32587
466.76875	0.33074
465.80435	0.33938
464.83995	0.34623
463.87555	0.34900
462.91116	0.35376
461.94676	0.35892
460.98236	0.35909
460.01796	0.35840
459.05356	0.36243
458.08916	0.37222
457.12477	0.37593
456.16037	0.36511
455.19597	0.35308
454.23157	0.34934
453.26717	0.34943
452.30277	0.34329
451.33838	0.33179
450.37398	0.32466
449.40958	0.32241
448.44518	0.31870
447.48078	0.31357
446.51639	0.31180
445.55199	0.31434
444.58759	0.31991
443.62319	0.32613
442.65879	0.32739
441.69439	0.32321
440.73000	0.32027
439.76560	0.32218
438.80120	0.32413
437.83680	0.32275
436.87240	0.32337
435.90800	0.32641
434.94361	0.32698
433.97921	0.32843
433.01481	0.33271
432.05041	0.33504
431.08601	0.33756
430.12162	0.34467
429.15722	0.34945
428.19282	0.34827
427.22842	0.34663
426.26402	0.34708
425.29962	0.34724
424.33523	0.34570
423.37083	0.34248
422.40643	0.32958
421.44203	0.30795
420.47763	0.29359
419.51323	0.28541
418.54884	0.26089
417.58444	0.22786
416.62004	0.20143
415.65564	0.17736
414.69124	0.15459
413.72685	0.13728
412.76245	0.12532
411.79805	0.11566
410.83365	0.10707
409.86925	0.10156
408.90485	0.10101
407.94046	0.09865
406.97606	0.09420
406.01166	0.09634
405.04726	0.10247
404.08286	0.10940
403.11846	0.11624
402.15407	0.11298
401.18967	0.09255
400.22527	0.05838
399.26087	0.02443
