3998.39510	0.00045
3997.43071	0.00046
3996.46631	0.00030
3995.50191	0.00016
3994.53751	0.00015
3993.57311	0.00017
3992.60871	0.00010
3991.64432	0.00000
3990.67992	0.00009
3989.71552	0.00022
3988.75112	0.00040
3987.78672	0.00086
3986.82232	0.00136
3985.85793	0.00154
3984.89353	0.00129
3983.92913	0.00109
3982.96473	0.00143
3982.00033	0.00157
3981.03594	0.00118
3980.07154	0.00121
3979.10714	0.00158
3978.14274	0.00157
3977.17834	0.00176
3976.21394	0.00260
3975.24955	0.00313
3974.28515	0.00258
3973.32075	0.00180
3972.35635	0.00202
3971.39195	0.00267
3970.42755	0.00260
3969.46316	0.00225
3968.49876	0.00235
3967.53436	0.00293
3966.56996	0.00360
3965.60556	0.00366
3964.64117	0.00304
3963.67677	0.00266
3962.71237	0.00335
3961.74797	0.00450
3960.78357	0.00493
3959.81917	0.00465
3958.85478	0.00406
3957.89038	0.00366
3956.92598	0.00407
3955.96158	0.00484
3954.99718	0.00510
3954.03278	0.00490
3953.06839	0.00467
3952.10399	0.00431
3951.13959	0.00436
3950.17519	0.00559
3949.21079	0.00662
3948.24640	0.00698
3947.28200	0.00747
3946.31760	0.00742
3945.35320	0.00660
3944.38880	0.00556
3943.42440	0.00532
3942.46001	0.00640
3941.49561	0.00688
3940.53121	0.00603
3939.56681	0.00565
3938.60241	0.00647
3937.63801	0.00695
3936.67362	0.00649
3935.70922	0.00619
3934.74482	0.00590
3933.78042	0.00564
3932.81602	0.00713
3931.85163	0.00904
3930.88723	0.00877
3929.92283	0.00835
3928.95843	0.00919
3927.99403	0.00899
3927.02963	0.00720
3926.06524	0.00652
3925.10084	0.00856
3924.13644	0.01025
3923.17204	0.00958
3922.20764	0.00792
3921.24324	0.00709
3920.27885	0.00856
3919.31445	0.00926
3918.35005	0.00851
3917.38565	0.01125
3916.42125	0.01480
3915.45686	0.01338
3914.49246	0.01003
3913.52806	0.00859
3912.56366	0.00847
3911.59926	0.00849
3910.63486	0.00877
3909.67047	0.00931
3908.70607	0.00965
3907.74167	0.00927
3906.77727	0.00831
3905.81287	0.00778
3904.84847	0.01007
3903.88408	0.01299
3902.91968	0.01323
3901.95528	0.01403
3900.99088	0.01376
3900.02648	0.01289
3899.06209	0.01567
3898.09769	0.01623
3897.13329	0.01313
3896.16889	0.01078
3895.20449	0.01035
3894.24009	0.01061
3893.27570	0.00919
3892.31130	0.00868
3891.34690	0.01348
3890.38250	0.01636
3889.41810	0.01395
3888.45370	0.01059
3887.48931	0.00753
3886.52491	0.00937
3885.56051	0.01716
3884.59611	0.01840
3883.63171	0.01490
3882.66731	0.01150
3881.70292	0.00910
3880.73852	0.01334
3879.77412	0.01979
3878.80972	0.01837
3877.84532	0.01414
3876.88093	0.01166
3875.91653	0.00979
3874.95213	0.01118
3873.98773	0.01651
3873.02333	0.01645
3872.05893	0.01068
3871.09454	0.00760
3870.13014	0.01495
3869.16574	0.02287
3868.20134	0.02068
3867.23694	0.01440
3866.27254	0.01089
3865.30815	0.01499
3864.34375	0.01976
3863.37935	0.01788
3862.41495	0.01639
3861.45055	0.01817
3860.48616	0.01747
3859.52176	0.01425
3858.55736	0.01235
3857.59296	0.01317
3856.62856	0.01174
3855.66416	0.00532
3854.69977	0.00598
3853.73537	0.02141
3852.77097	0.02770
3851.80657	0.02624
3850.84217	0.02284
3849.87777	0.01935
3848.91338	0.01746
3847.94898	0.01563
3846.98458	0.01391
3846.02018	0.01266
3845.05578	0.01211
3844.09139	0.01489
3843.12699	0.01739
3842.16259	0.01503
3841.19819	0.01361
3840.23379	0.01462
3839.26939	0.01307
3838.30500	0.01625
3837.34060	0.02257
3836.37620	0.02056
3835.41180	0.01864
3834.44740	0.01961
3833.48300	0.01597
3832.51861	0.01308
3831.55421	0.01711
3830.58981	0.01949
3829.62541	0.01671
3828.66101	0.01374
3827.69662	0.01381
3826.73222	0.01628
3825.76782	0.01703
3824.80342	0.01530
3823.83902	0.01220
3822.87462	0.00832
3821.91023	0.01045
3820.94583	0.02137
3819.98143	0.02476
3819.01703	0.01955
3818.05263	0.01215
3817.08823	0.00890
3816.12384	0.01711
3815.15944	0.02315
3814.19504	0.01983
3813.23064	0.01607
3812.26624	0.01464
3811.30185	0.01415
3810.33745	0.01395
3809.37305	0.01188
3808.40865	0.00859
3807.44425	0.01231
3806.47985	0.02099
3805.51546	0.02091
3804.55106	0.01569
3803.58666	0.01076
3802.62226	0.00935
3801.65786	0.01742
3800.69346	0.02454
3799.72907	0.02174
3798.76467	0.01637
3797.80027	0.01369
3796.83587	0.01539
3795.87147	0.01761
3794.90708	0.01655
3793.94268	0.01492
3792.97828	0.01467
3792.01388	0.01459
3791.04948	0.01432
3790.08508	0.01425
3789.12069	0.01427
3788.15629	0.01439
3787.19189	0.01452
3786.22749	0.01456
3785.26309	0.01512
3784.29869	0.01596
3783.33430	0.01564
3782.36990	0.01433
3781.40550	0.01232
3780.44110	0.01183
3779.47670	0.01577
3778.51230	0.01853
3777.54791	0.01700
3776.58351	0.01510
3775.61911	0.01472
3774.65471	0.01505
3773.69031	0.01518
3772.72592	0.01443
3771.76152	0.01253
3770.79712	0.01334
3769.83272	0.01951
3768.86832	0.02192
3767.90392	0.01774
3766.93953	0.01413
3765.97513	0.01610
3765.01073	0.01895
3764.04633	0.01773
3763.08193	0.01541
3762.11753	0.01364
3761.15314	0.01219
3760.18874	0.01471
3759.22434	0.01961
3758.25994	0.01909
3757.29554	0.01668
3756.33115	0.01708
3755.36675	0.01617
3754.40235	0.01143
3753.43795	0.00796
3752.47355	0.01479
3751.50915	0.02099
3750.54476	0.01759
3749.58036	0.02005
3748.61596	0.02529
3747.65156	0.02103
3746.68716	0.01172
3745.72276	0.00532
3744.75837	0.01826
3743.79397	0.02952
3742.82957	0.02207
3741.86517	0.01573
3740.90077	0.01572
3739.93638	0.01547
3738.97198	0.01324
3738.00758	0.01166
3737.04318	0.01225
3736.07878	0.01673
3735.11438	0.02247
3734.14999	0.02139
3733.18559	0.01677
3732.22119	0.01800
3731.25679	0.02101
3730.29239	0.01873
3729.32799	0.01506
3728.36360	0.01235
3727.39920	0.01194
3726.43480	0.01503
3725.47040	0.01739
3724.50600	0.01584
3723.54161	0.01388
3722.57721	0.01621
3721.61281	0.01888
3720.64841	0.01773
3719.68401	0.01683
3718.71961	0.01718
3717.75522	0.01617
3716.79082	0.01435
3715.82642	0.01342
3714.86202	0.01251
3713.89762	0.00981
3712.93322	0.01039
3711.96883	0.01825
3711.00443	0.02086
3710.04003	0.01933
3709.07563	0.02091
3708.11123	0.02055
3707.14684	0.01742
3706.18244	0.01530
3705.21804	0.01481
3704.25364	0.01407
3703.28924	0.01248
3702.32484	0.01400
3701.36045	0.01770
3700.39605	0.01730
3699.43165	0.01482
3698.46725	0.01353
3697.50285	0.01372
3696.53845	0.01472
3695.57406	0.01478
3694.60966	0.01372
3693.64526	0.01241
3692.68086	0.01126
3691.71646	0.01350
3690.75207	0.01602
3689.78767	0.01302
3688.82327	0.01422
3687.85887	0.02083
3686.89447	0.02014
3685.93007	0.01631
3684.96568	0.01458
3684.00128	0.01408
3683.03688	0.01363
3682.07248	0.01291
3681.10808	0.01193
3680.14368	0.01258
3679.17929	0.01442
3678.21489	0.01214
3677.25049	0.00618
3676.28609	0.00742
3675.32169	0.02113
3674.35730	0.02515
3673.39290	0.01846
3672.42850	0.01081
3671.46410	0.00928
3670.49970	0.01554
3669.53530	0.01967
3668.57091	0.01977
3667.60651	0.01767
3666.64211	0.01430
3665.67771	0.01243
3664.71331	0.01212
3663.74891	0.01228
3662.78452	0.01268
3661.82012	0.01285
3660.85572	0.01305
3659.89132	0.01321
3658.92692	0.01188
3657.96252	0.00895
3656.99813	0.01020
3656.03373	0.01704
3655.06933	0.01847
3654.10493	0.01439
3653.14053	0.00989
3652.17614	0.00750
3651.21174	0.00974
3650.24734	0.01541
3649.28294	0.01820
3648.31854	0.01767
3647.35414	0.01895
3646.38975	0.02006
3645.42535	0.01756
3644.46095	0.01490
3643.49655	0.01420
3642.53215	0.01413
3641.56775	0.01399
3640.60336	0.01368
3639.63896	0.01324
3638.67456	0.01291
3637.71016	0.01264
3636.74576	0.01208
3635.78137	0.01144
3634.81697	0.01239
3633.85257	0.01527
3632.88817	0.01635
3631.92377	0.01409
3630.95937	0.01085
3629.99498	0.01187
3629.03058	0.02123
3628.06618	0.02575
3627.10178	0.02208
3626.13738	0.01816
3625.17298	0.01615
3624.20859	0.01497
3623.24419	0.01449
3622.27979	0.01380
3621.31539	0.01221
3620.35099	0.01247
3619.38660	0.01524
3618.42220	0.01714
3617.45780	0.01774
3616.49340	0.01658
3615.52900	0.01447
3614.56460	0.01317
3613.60021	0.01284
3612.63581	0.01453
3611.67141	0.01463
3610.70701	0.01154
3609.74261	0.01147
3608.77821	0.01485
3607.81382	0.01639
3606.84942	0.01657
3605.88502	0.01525
3604.92062	0.01304
3603.95622	0.01170
3602.99183	0.01074
3602.02743	0.01005
3601.06303	0.01082
3600.09863	0.01217
3599.13423	0.01282
3598.16983	0.01270
3597.20544	0.01156
3596.24104	0.01125
3595.27664	0.01295
3594.31224	0.01411
3593.34784	0.01407
3592.38344	0.01342
3591.41905	0.01156
3590.45465	0.00919
3589.49025	0.00902
3588.52585	0.01181
3587.56145	0.01419
3586.59706	0.01518
3585.63266	0.01415
3584.66826	0.01141
3583.70386	0.01024
3582.73946	0.01095
3581.77506	0.01120
3580.81067	0.01102
3579.84627	0.01118
3578.88187	0.01109
3577.91747	0.01081
3576.95307	0.01099
3575.98867	0.01112
3575.02428	0.01106
3574.05988	0.01082
3573.09548	0.01010
3572.13108	0.00943
3571.16668	0.00917
3570.20229	0.00822
3569.23789	0.00708
3568.27349	0.00882
3567.30909	0.01319
3566.34469	0.01622
3565.38029	0.01568
3564.41590	0.01301
3563.45150	0.01140
3562.48710	0.01108
3561.52270	0.01079
3560.55830	0.01102
3559.59390	0.01133
3558.62951	0.01060
3557.66511	0.00977
3556.70071	0.00974
3555.73631	0.00967
3554.77191	0.00952
3553.80752	0.00994
3552.84312	0.01093
3551.87872	0.01158
3550.91432	0.01083
3549.94992	0.00944
3548.98552	0.00889
3548.02113	0.00975
3547.05673	0.01129
3546.09233	0.01208
3545.12793	0.01191
3544.16353	0.01134
3543.19913	0.01085
3542.23474	0.01069
3541.27034	0.01058
3540.30594	0.01039
3539.34154	0.01061
3538.37714	0.01105
3537.41274	0.01110
3536.44835	0.01120
3535.48395	0.01152
3534.51955	0.01141
3533.55515	0.01098
3532.59075	0.01070
3531.62636	0.01048
3530.66196	0.01016
3529.69756	0.01041
3528.73316	0.01163
3527.76876	0.01259
3526.80436	0.01262
3525.83997	0.01239
3524.87557	0.01228
3523.91117	0.01239
3522.94677	0.01279
3521.98237	0.01292
3521.01797	0.01251
3520.05358	0.01225
3519.08918	0.01232
3518.12478	0.01196
3517.16038	0.01103
3516.19598	0.01035
3515.23159	0.01061
3514.26719	0.01153
3513.30279	0.01234
3512.33839	0.01260
3511.37399	0.01229
3510.40959	0.01239
3509.44520	0.01348
3508.48080	0.01381
3507.51640	0.01273
3506.55200	0.01197
3505.58760	0.01205
3504.62320	0.01248
3503.65881	0.01313
3502.69441	0.01372
3501.73001	0.01367
3500.76561	0.01270
3499.80121	0.01192
3498.83682	0.01249
3497.87242	0.01360
3496.90802	0.01413
3495.94362	0.01410
3494.97922	0.01381
3494.01482	0.01378
3493.05043	0.01435
3492.08603	0.01498
3491.12163	0.01516
3490.15723	0.01502
3489.19283	0.01499
3488.22843	0.01522
3487.26404	0.01531
3486.29964	0.01536
3485.33524	0.01568
3484.37084	0.01569
3483.40644	0.01565
3482.44205	0.01662
3481.47765	0.01796
3480.51325	0.01832
3479.54885	0.01780
3478.58445	0.01719
3477.62005	0.01708
3476.65566	0.01762
3475.69126	0.01836
3474.72686	0.01877
3473.76246	0.01863
3472.79806	0.01807
3471.83366	0.01795
3470.86927	0.01878
3469.90487	0.01942
3468.94047	0.01925
3467.97607	0.01918
3467.01167	0.01972
3466.04728	0.02041
3465.08288	0.02068
3464.11848	0.02044
3463.15408	0.02044
3462.18968	0.02115
3461.22528	0.02195
3460.26089	0.02230
3459.29649	0.02238
3458.33209	0.02272
3457.36769	0.02289
3456.40329	0.02235
3455.43889	0.02205
3454.47450	0.02258
3453.51010	0.02349
3452.54570	0.02463
3451.58130	0.02584
3450.61690	0.02674
3449.65251	0.02686
3448.68811	0.02636
3447.72371	0.02633
3446.75931	0.02664
3445.79491	0.02649
3444.83051	0.02641
3443.86612	0.02681
3442.90172	0.02769
3441.93732	0.02875
3440.97292	0.02921
3440.00852	0.02943
3439.04412	0.03016
3438.07973	0.03095
3437.11533	0.03144
3436.15093	0.03168
3435.18653	0.03167
3434.22213	0.03177
3433.25774	0.03231
3432.29334	0.03301
3431.32894	0.03356
3430.36454	0.03380
3429.40014	0.03367
3428.43574	0.03376
3427.47135	0.03459
3426.50695	0.03578
3425.54255	0.03650
3424.57815	0.03636
3423.61375	0.03596
3422.64935	0.03609
3421.68496	0.03665
3420.72056	0.03756
3419.75616	0.03888
3418.79176	0.03994
3417.82736	0.04017
3416.86296	0.04015
3415.89857	0.04071
3414.93417	0.04175
3413.96977	0.04267
3413.00537	0.04312
3412.04097	0.04317
3411.07658	0.04347
3410.11218	0.04443
3409.14778	0.04562
3408.18338	0.04642
3407.21898	0.04660
3406.25458	0.04625
3405.29019	0.04602
3404.32579	0.04650
3403.36139	0.04736
3402.39699	0.04806
3401.43259	0.04879
3400.46819	0.04982
3399.50380	0.05057
3398.53940	0.05055
3397.57500	0.05057
3396.61060	0.05133
3395.64620	0.05237
3394.68181	0.05321
3393.71741	0.05407
3392.75301	0.05539
3391.78861	0.05689
3390.82421	0.05791
3389.85981	0.05843
3388.89542	0.05847
3387.93102	0.05849
3386.96662	0.05929
3386.00222	0.06026
3385.03782	0.06048
3384.07342	0.06056
3383.10903	0.06143
3382.14463	0.06294
3381.18023	0.06430
3380.21583	0.06496
3379.25143	0.06497
3378.28704	0.06470
3377.32264	0.06475
3376.35824	0.06549
3375.39384	0.06650
3374.42944	0.06732
3373.46504	0.06811
3372.50065	0.06914
3371.53625	0.07030
3370.57185	0.07152
3369.60745	0.07275
3368.64305	0.07381
3367.67865	0.07459
3366.71426	0.07489
3365.74986	0.07499
3364.78546	0.07563
3363.82106	0.07681
3362.85666	0.07819
3361.89227	0.07959
3360.92787	0.08051
3359.96347	0.08064
3358.99907	0.08058
3358.03467	0.08108
3357.07027	0.08205
3356.10588	0.08305
3355.14148	0.08409
3354.17708	0.08518
3353.21268	0.08596
3352.24828	0.08656
3351.28388	0.08732
3350.31949	0.08786
3349.35509	0.08816
3348.39069	0.08877
3347.42629	0.08971
3346.46189	0.09093
3345.49750	0.09215
3344.53310	0.09278
3343.56870	0.09287
3342.60430	0.09290
3341.63990	0.09326
3340.67550	0.09413
3339.71111	0.09554
3338.74671	0.09710
3337.78231	0.09821
3336.81791	0.09896
3335.85351	0.09986
3334.88911	0.10081
3333.92472	0.10152
3332.96032	0.10214
3331.99592	0.10298
3331.03152	0.10408
3330.06712	0.10517
3329.10273	0.10592
3328.13833	0.10655
3327.17393	0.10772
3326.20953	0.10899
3325.24513	0.10974
3324.28073	0.11047
3323.31634	0.11118
3322.35194	0.11146
3321.38754	0.11189
3320.42314	0.11297
3319.45874	0.11441
3318.49434	0.11535
3317.52995	0.11549
3316.56555	0.11572
3315.60115	0.11651
3314.63675	0.11745
3313.67235	0.11826
3312.70795	0.11904
3311.74356	0.11985
3310.77916	0.12044
3309.81476	0.12072
3308.85036	0.12138
3307.88596	0.12270
3306.92157	0.12392
3305.95717	0.12496
3304.99277	0.12607
3304.02837	0.12682
3303.06397	0.12702
3302.09957	0.12706
3301.13518	0.12770
3300.17078	0.12892
3299.20638	0.12976
3298.24198	0.13023
3297.27758	0.13086
3296.31318	0.13163
3295.34879	0.13231
3294.38439	0.13226
3293.41999	0.13176
3292.45559	0.13217
3291.49119	0.13362
3290.52680	0.13530
3289.56240	0.13675
3288.59800	0.13760
3287.63360	0.13791
3286.66920	0.13828
3285.70480	0.13881
3284.74041	0.13906
3283.77601	0.13943
3282.81161	0.14037
3281.84721	0.14104
3280.88281	0.14095
3279.91841	0.14124
3278.95402	0.14246
3277.98962	0.14372
3277.02522	0.14476
3276.06082	0.14556
3275.09642	0.14566
3274.13203	0.14548
3273.16763	0.14560
3272.20323	0.14622
3271.23883	0.14754
3270.27443	0.14856
3269.31003	0.14850
3268.34564	0.14852
3267.38124	0.14916
3266.41684	0.14953
3265.45244	0.14954
3264.48804	0.14979
3263.52364	0.15045
3262.55925	0.15135
3261.59485	0.15194
3260.63045	0.15169
3259.66605	0.15120
3258.70165	0.15149
3257.73726	0.15270
3256.77286	0.15399
3255.80846	0.15453
3254.84406	0.15436
3253.87966	0.15434
3252.91526	0.15485
3251.95087	0.15549
3250.98647	0.15594
3250.02207	0.15634
3249.05767	0.15660
3248.09327	0.15652
3247.12887	0.15635
3246.16448	0.15637
3245.20008	0.15653
3244.23568	0.15693
3243.27128	0.15753
3242.30688	0.15796
3241.34249	0.15820
3240.37809	0.15866
3239.41369	0.15921
3238.44929	0.15933
3237.48489	0.15924
3236.52049	0.15912
3235.55610	0.15863
3234.59170	0.15811
3233.62730	0.15835
3232.66290	0.15905
3231.69850	0.15985
3230.73410	0.16098
3229.76971	0.16201
3228.80531	0.16214
3227.84091	0.16157
3226.87651	0.16111
3225.91211	0.16096
3224.94772	0.16085
3223.98332	0.16075
3223.01892	0.16057
3222.05452	0.16016
3221.09012	0.15986
3220.12572	0.16001
3219.16133	0.16010
3218.19693	0.15982
3217.23253	0.15976
3216.26813	0.15979
3215.30373	0.15961
3214.33933	0.15967
3213.37494	0.15973
3212.41054	0.15948
3211.44614	0.15936
3210.48174	0.15940
3209.51734	0.15930
3208.55295	0.15909
3207.58855	0.15901
3206.62415	0.15919
3205.65975	0.15932
3204.69535	0.15899
3203.73095	0.15855
3202.76656	0.15846
3201.80216	0.15830
3200.83776	0.15753
3199.87336	0.15654
3198.90896	0.15629
3197.94456	0.15701
3196.98017	0.15806
3196.01577	0.15874
3195.05137	0.15845
3194.08697	0.15747
3193.12257	0.15649
3192.15817	0.15544
3191.19378	0.15468
3190.22938	0.15475
3189.26498	0.15509
3188.30058	0.15490
3187.33618	0.15399
3186.37179	0.15311
3185.40739	0.15258
3184.44299	0.15181
3183.47859	0.15101
3182.51419	0.15094
3181.54979	0.15137
3180.58540	0.15144
3179.62100	0.15070
3178.65660	0.14987
3177.69220	0.14982
3176.72780	0.15022
3175.76340	0.15022
3174.79901	0.14962
3173.83461	0.14870
3172.87021	0.14784
3171.90581	0.14726
3170.94141	0.14715
3169.97702	0.14745
3169.01262	0.14756
3168.04822	0.14717
3167.08382	0.14657
3166.11942	0.14591
3165.15502	0.14522
3164.19063	0.14464
3163.22623	0.14429
3162.26183	0.14412
3161.29743	0.14381
3160.33303	0.14352
3159.36863	0.14370
3158.40424	0.14383
3157.43984	0.14343
3156.47544	0.14299
3155.51104	0.14272
3154.54664	0.14233
3153.58225	0.14163
3152.61785	0.14069
3151.65345	0.14000
3150.68905	0.13949
3149.72465	0.13864
3148.76025	0.13773
3147.79586	0.13723
3146.83146	0.13671
3145.86706	0.13583
3144.90266	0.13512
3143.93826	0.13475
3142.97386	0.13454
3142.00947	0.13477
3141.04507	0.13527
3140.08067	0.13556
3139.11627	0.13599
3138.15187	0.13657
3137.18748	0.13690
3136.22308	0.13739
3135.25868	0.13791
3134.29428	0.13768
3133.32988	0.13690
3132.36548	0.13597
3131.40109	0.13488
3130.43669	0.13361
3129.47229	0.13214
3128.50789	0.13062
3127.54349	0.12939
3126.57909	0.12878
3125.61470	0.12836
3124.65030	0.12732
3123.68590	0.12600
3122.72150	0.12539
3121.75710	0.12529
3120.79271	0.12480
3119.82831	0.12362
3118.86391	0.12214
3117.89951	0.12104
3116.93511	0.12050
3115.97071	0.12002
3115.00632	0.11916
3114.04192	0.11794
3113.07752	0.11669
3112.11312	0.11585
3111.14872	0.11566
3110.18432	0.11579
3109.21993	0.11581
3108.25553	0.11566
3107.29113	0.11508
3106.32673	0.11388
3105.36233	0.11261
3104.39794	0.11186
3103.43354	0.11142
3102.46914	0.11064
3101.50474	0.10969
3100.54034	0.10907
3099.57594	0.10870
3098.61155	0.10856
3097.64715	0.10867
3096.68275	0.10910
3095.71835	0.10976
3094.75395	0.11042
3093.78955	0.11111
3092.82516	0.11225
3091.86076	0.11393
3090.89636	0.11603
3089.93196	0.11874
3088.96756	0.12139
3088.00317	0.12251
3087.03877	0.12217
3086.07437	0.12122
3085.10997	0.11963
3084.14557	0.11756
3083.18117	0.11576
3082.21678	0.11442
3081.25238	0.11341
3080.28798	0.11306
3079.32358	0.11350
3078.35918	0.11458
3077.39478	0.11685
3076.43039	0.12090
3075.46599	0.12680
3074.50159	0.13498
3073.53719	0.14604
3072.57279	0.15971
3071.60839	0.17457
3070.64400	0.18865
3069.67960	0.20041
3068.71520	0.20870
3067.75080	0.21265
3066.78640	0.21161
3065.82201	0.20577
3064.85761	0.19721
3063.89321	0.18832
3062.92881	0.18052
3061.96441	0.17464
3061.00001	0.17094
3060.03562	0.16939
3059.07122	0.16942
3058.10682	0.17043
3057.14242	0.17279
3056.17802	0.17648
3055.21362	0.18023
3054.24923	0.18297
3053.28483	0.18456
3052.32043	0.18510
3051.35603	0.18447
3050.39163	0.18301
3049.42724	0.18152
3048.46284	0.18018
3047.49844	0.17831
3046.53404	0.17534
3045.56964	0.17165
3044.60524	0.16825
3043.64085	0.16536
3042.67645	0.16205
3041.71205	0.15740
3040.74765	0.15150
3039.78325	0.14531
3038.81885	0.13975
3037.85446	0.13515
3036.89006	0.13143
3035.92566	0.12865
3034.96126	0.12690
3033.99686	0.12619
3033.03247	0.12679
3032.06807	0.12864
3031.10367	0.13126
3030.13927	0.13472
3029.17487	0.13882
3028.21047	0.14269
3027.24608	0.14588
3026.28168	0.14837
3025.31728	0.15020
3024.35288	0.15118
3023.38848	0.15088
3022.42408	0.14892
3021.45969	0.14587
3020.49529	0.14303
3019.53089	0.14128
3018.56649	0.14094
3017.60209	0.14213
3016.63770	0.14440
3015.67330	0.14709
3014.70890	0.14999
3013.74450	0.15306
3012.78010	0.15565
3011.81570	0.15658
3010.85131	0.15578
3009.88691	0.15373
3008.92251	0.15002
3007.95811	0.14492
3006.99371	0.13999
3006.02931	0.13657
3005.06492	0.13509
3004.10052	0.13559
3003.13612	0.13797
3002.17172	0.14135
3001.20732	0.14470
3000.24293	0.14731
2999.27853	0.14834
2998.31413	0.14720
2997.34973	0.14402
2996.38533	0.13932
2995.42093	0.13390
2994.45654	0.12874
2993.49214	0.12431
2992.52774	0.12058
2991.56334	0.11751
2990.59894	0.11496
2989.63454	0.11295
2988.67015	0.11143
2987.70575	0.10992
2986.74135	0.10844
2985.77695	0.10735
2984.81255	0.10647
2983.84816	0.10582
2982.88376	0.10600
2981.91936	0.10689
2980.95496	0.10800
2979.99056	0.10916
2979.02616	0.10983
2978.06177	0.10974
2977.09737	0.10953
2976.13297	0.10934
2975.16857	0.10857
2974.20417	0.10722
2973.23977	0.10579
2972.27538	0.10458
2971.31098	0.10379
2970.34658	0.10323
2969.38218	0.10245
2968.41778	0.10135
2967.45339	0.09993
2966.48899	0.09805
2965.52459	0.09596
2964.56019	0.09433
2963.59579	0.09328
2962.63139	0.09225
2961.66700	0.09110
2960.70260	0.09032
2959.73820	0.08975
2958.77380	0.08878
2957.80940	0.08748
2956.84500	0.08630
2955.88061	0.08543
2954.91621	0.08474
2953.95181	0.08410
2952.98741	0.08351
2952.02301	0.08277
2951.05861	0.08173
2950.09422	0.08079
2949.12982	0.08040
2948.16542	0.08026
2947.20102	0.07989
2946.23662	0.07945
2945.27223	0.07897
2944.30783	0.07826
2943.34343	0.07762
2942.37903	0.07725
2941.41463	0.07689
2940.45023	0.07657
2939.48584	0.07655
2938.52144	0.07647
2937.55704	0.07600
2936.59264	0.07563
2935.62824	0.07587
2934.66384	0.07633
2933.69945	0.07615
2932.73505	0.07529
2931.77065	0.07442
2930.80625	0.07383
2929.84185	0.07343
2928.87746	0.07311
2927.91306	0.07299
2926.94866	0.07362
2925.98426	0.07487
2925.01986	0.07570
2924.05546	0.07568
2923.09107	0.07524
2922.12667	0.07485
2921.16227	0.07468
2920.19787	0.07487
2919.23347	0.07530
2918.26907	0.07547
2917.30468	0.07526
2916.34028	0.07513
2915.37588	0.07563
2914.41148	0.07645
2913.44708	0.07689
2912.48269	0.07714
2911.51829	0.07777
2910.55389	0.07888
2909.58949	0.07981
2908.62509	0.08002
2907.66069	0.08011
2906.69630	0.08032
2905.73190	0.08027
2904.76750	0.08007
2903.80310	0.07999
2902.83870	0.07976
2901.87430	0.07877
2900.90991	0.07739
2899.94551	0.07646
2898.98111	0.07585
2898.01671	0.07534
2897.05231	0.07507
2896.08792	0.07490
2895.12352	0.07499
2894.15912	0.07561
2893.19472	0.07630
2892.23032	0.07649
2891.26592	0.07633
2890.30153	0.07604
2889.33713	0.07559
2888.37273	0.07513
2887.40833	0.07456
2886.44393	0.07363
2885.47953	0.07288
2884.51514	0.07285
2883.55074	0.07315
2882.58634	0.07306
2881.62194	0.07284
2880.65754	0.07303
2879.69315	0.07348
2878.72875	0.07391
2877.76435	0.07436
2876.79995	0.07477
2875.83555	0.07514
2874.87115	0.07530
2873.90676	0.07479
2872.94236	0.07377
2871.97796	0.07279
2871.01356	0.07198
2870.04916	0.07099
2869.08476	0.06981
2868.12037	0.06924
2867.15597	0.06902
2866.19157	0.06812
2865.22717	0.06673
2864.26277	0.06552
2863.29838	0.06468
2862.33398	0.06398
2861.36958	0.06340
2860.40518	0.06290
2859.44078	0.06192
2858.47638	0.06048
2857.51199	0.05900
2856.54759	0.05781
2855.58319	0.05709
2854.61879	0.05652
2853.65439	0.05590
2852.68999	0.05550
2851.72560	0.05558
2850.76120	0.05606
2849.79680	0.05692
2848.83240	0.05820
2847.86800	0.05914
2846.90360	0.05911
2845.93921	0.05899
2844.97481	0.05955
2844.01041	0.06014
2843.04601	0.06019
2842.08161	0.06015
2841.11722	0.06064
2840.15282	0.06178
2839.18842	0.06271
2838.22402	0.06256
2837.25962	0.06175
2836.29522	0.06133
2835.33083	0.06154
2834.36643	0.06170
2833.40203	0.06141
2832.43763	0.06098
2831.47323	0.06090
2830.50883	0.06117
2829.54444	0.06146
2828.58004	0.06156
2827.61564	0.06128
2826.65124	0.06080
2825.68684	0.06051
2824.72245	0.06051
2823.75805	0.06086
2822.79365	0.06139
2821.82925	0.06159
2820.86485	0.06137
2819.90045	0.06123
2818.93606	0.06135
2817.97166	0.06145
2817.00726	0.06114
2816.04286	0.06051
2815.07846	0.06032
2814.11406	0.06075
2813.14967	0.06109
2812.18527	0.06096
2811.22087	0.06066
2810.25647	0.06043
2809.29207	0.06024
2808.32768	0.05993
2807.36328	0.05940
2806.39888	0.05894
2805.43448	0.05869
2804.47008	0.05830
2803.50568	0.05774
2802.54129	0.05777
2801.57689	0.05836
2800.61249	0.05840
2799.64809	0.05795
2798.68369	0.05803
2797.71929	0.05846
2796.75490	0.05837
2795.79050	0.05786
2794.82610	0.05762
2793.86170	0.05760
2792.89730	0.05744
2791.93291	0.05719
2790.96851	0.05687
2790.00411	0.05649
2789.03971	0.05640
2788.07531	0.05650
2787.11091	0.05629
2786.14652	0.05563
2785.18212	0.05496
2784.21772	0.05491
2783.25332	0.05544
2782.28892	0.05577
2781.32452	0.05546
2780.36013	0.05498
2779.39573	0.05483
2778.43133	0.05493
2777.46693	0.05518
2776.50253	0.05557
2775.53814	0.05583
2774.57374	0.05582
2773.60934	0.05569
2772.64494	0.05553
2771.68054	0.05530
2770.71614	0.05517
2769.75175	0.05529
2768.78735	0.05536
2767.82295	0.05530
2766.85855	0.05529
2765.89415	0.05519
2764.92975	0.05482
2763.96536	0.05439
2763.00096	0.05425
2762.03656	0.05443
2761.07216	0.05453
2760.10776	0.05437
2759.14337	0.05419
2758.17897	0.05402
2757.21457	0.05394
2756.25017	0.05405
2755.28577	0.05411
2754.32137	0.05391
2753.35698	0.05363
2752.39258	0.05342
2751.42818	0.05316
2750.46378	0.05286
2749.49938	0.05286
2748.53498	0.05324
2747.57059	0.05355
2746.60619	0.05345
2745.64179	0.05312
2744.67739	0.05300
2743.71299	0.05319
2742.74860	0.05360
2741.78420	0.05410
2740.81980	0.05431
2739.85540	0.05418
2738.89100	0.05428
2737.92660	0.05466
2736.96221	0.05472
2735.99781	0.05426
2735.03341	0.05361
2734.06901	0.05302
2733.10461	0.05275
2732.14021	0.05308
2731.17582	0.05340
2730.21142	0.05315
2729.24702	0.05283
2728.28262	0.05276
2727.31822	0.05272
2726.35382	0.05277
2725.38943	0.05302
2724.42503	0.05326
2723.46063	0.05332
2722.49623	0.05303
2721.53183	0.05253
2720.56744	0.05247
2719.60304	0.05280
2718.63864	0.05271
2717.67424	0.05220
2716.70984	0.05194
2715.74544	0.05225
2714.78105	0.05282
2713.81665	0.05326
2712.85225	0.05348
2711.88785	0.05364
2710.92345	0.05383
2709.95905	0.05394
2708.99466	0.05407
2708.03026	0.05434
2707.06586	0.05455
2706.10146	0.05477
2705.13706	0.05519
2704.17267	0.05553
2703.20827	0.05556
2702.24387	0.05532
2701.27947	0.05489
2700.31507	0.05455
2699.35067	0.05460
2698.38628	0.05490
2697.42188	0.05509
2696.45748	0.05527
2695.49308	0.05557
2694.52868	0.05560
2693.56428	0.05533
2692.59989	0.05515
2691.63549	0.05499
2690.67109	0.05458
2689.70669	0.05390
2688.74229	0.05328
2687.77790	0.05310
2686.81350	0.05321
2685.84910	0.05317
2684.88470	0.05300
2683.92030	0.05293
2682.95590	0.05291
2681.99151	0.05285
2681.02711	0.05261
2680.06271	0.05212
2679.09831	0.05192
2678.13391	0.05217
2677.16951	0.05212
2676.20512	0.05162
2675.24072	0.05124
2674.27632	0.05129
2673.31192	0.05142
2672.34752	0.05113
2671.38313	0.05059
2670.41873	0.05040
2669.45433	0.05057
2668.48993	0.05064
2667.52553	0.05052
2666.56113	0.05048
2665.59674	0.05052
2664.63234	0.05052
2663.66794	0.05048
2662.70354	0.05037
2661.73914	0.05006
2660.77474	0.04977
2659.81035	0.05005
2658.84595	0.05078
2657.88155	0.05113
2656.91715	0.05077
2655.95275	0.05011
2654.98836	0.04950
2654.02396	0.04900
2653.05956	0.04878
2652.09516	0.04902
2651.13076	0.04940
2650.16636	0.04943
2649.20197	0.04935
2648.23757	0.04955
2647.27317	0.04966
2646.30877	0.04917
2645.34437	0.04838
2644.37997	0.04819
2643.41558	0.04850
2642.45118	0.04837
2641.48678	0.04778
2640.52238	0.04733
2639.55798	0.04709
2638.59359	0.04709
2637.62919	0.04731
2636.66479	0.04731
2635.70039	0.04707
2634.73599	0.04705
2633.77159	0.04694
2632.80720	0.04643
2631.84280	0.04606
2630.87840	0.04603
2629.91400	0.04584
2628.94960	0.04541
2627.98520	0.04500
2627.02081	0.04454
2626.05641	0.04428
2625.09201	0.04445
2624.12761	0.04449
2623.16321	0.04426
2622.19882	0.04447
2621.23442	0.04515
2620.27002	0.04562
2619.30562	0.04564
2618.34122	0.04558
2617.37682	0.04570
2616.41243	0.04596
2615.44803	0.04611
2614.48363	0.04609
2613.51923	0.04573
2612.55483	0.04502
2611.59043	0.04409
2610.62604	0.04288
2609.66164	0.04190
2608.69724	0.04177
2607.73284	0.04209
2606.76844	0.04238
2605.80404	0.04270
2604.83965	0.04311
2603.87525	0.04330
2602.91085	0.04310
2601.94645	0.04262
2600.98205	0.04218
2600.01766	0.04201
2599.05326	0.04192
2598.08886	0.04179
2597.12446	0.04182
2596.16006	0.04200
2595.19566	0.04202
2594.23127	0.04182
2593.26687	0.04166
2592.30247	0.04150
2591.33807	0.04114
2590.37367	0.04090
2589.40927	0.04133
2588.44488	0.04213
2587.48048	0.04257
2586.51608	0.04289
2585.55168	0.04360
2584.58728	0.04422
2583.62289	0.04408
2582.65849	0.04366
2581.69409	0.04371
2580.72969	0.04371
2579.76529	0.04323
2578.80089	0.04283
2577.83650	0.04259
2576.87210	0.04221
2575.90770	0.04172
2574.94330	0.04112
2573.97890	0.04054
2573.01450	0.04013
2572.05011	0.03988
2571.08571	0.03988
2570.12131	0.04011
2569.15691	0.04012
2568.19251	0.03973
2567.22812	0.03949
2566.26372	0.03982
2565.29932	0.04019
2564.33492	0.04026
2563.37052	0.04028
2562.40612	0.04040
2561.44173	0.04056
2560.47733	0.04069
2559.51293	0.04059
2558.54853	0.04019
2557.58413	0.03974
2556.61973	0.03936
2555.65534	0.03901
2554.69094	0.03869
2553.72654	0.03873
2552.76214	0.03912
2551.79774	0.03920
2550.83335	0.03895
2549.86895	0.03880
2548.90455	0.03875
2547.94015	0.03927
2546.97575	0.04032
2546.01135	0.04055
2545.04696	0.03968
2544.08256	0.03898
2543.11816	0.03850
2542.15376	0.03757
2541.18936	0.03689
2540.22496	0.03704
2539.26057	0.03769
2538.29617	0.03856
2537.33177	0.03911
2536.36737	0.03916
2535.40297	0.03913
2534.43858	0.03893
2533.47418	0.03862
2532.50978	0.03880
2531.54538	0.03900
2530.58098	0.03861
2529.61658	0.03823
2528.65219	0.03830
2527.68779	0.03788
2526.72339	0.03663
2525.75899	0.03602
2524.79459	0.03652
2523.83019	0.03699
2522.86580	0.03712
2521.90140	0.03731
2520.93700	0.03733
2519.97260	0.03671
2519.00820	0.03608
2518.04381	0.03632
2517.07941	0.03691
2516.11501	0.03710
2515.15061	0.03716
2514.18621	0.03740
2513.22181	0.03764
2512.25742	0.03772
2511.29302	0.03750
2510.32862	0.03716
2509.36422	0.03711
2508.39982	0.03708
2507.43542	0.03679
2506.47103	0.03652
2505.50663	0.03640
2504.54223	0.03668
2503.57783	0.03723
2502.61343	0.03718
2501.64904	0.03646
2500.68464	0.03600
2499.72024	0.03630
2498.75584	0.03694
2497.79144	0.03716
2496.82704	0.03691
2495.86265	0.03682
2494.89825	0.03724
2493.93385	0.03813
2492.96945	0.03895
2492.00505	0.03919
2491.04065	0.03937
2490.07626	0.03969
2489.11186	0.03944
2488.14746	0.03856
2487.18306	0.03792
2486.21866	0.03782
2485.25426	0.03764
2484.28987	0.03753
2483.32547	0.03806
2482.36107	0.03854
2481.39667	0.03827
2480.43227	0.03777
2479.46788	0.03728
2478.50348	0.03648
2477.53908	0.03586
2476.57468	0.03618
2475.61028	0.03711
2474.64588	0.03770
2473.68149	0.03764
2472.71709	0.03723
2471.75269	0.03670
2470.78829	0.03617
2469.82389	0.03601
2468.85949	0.03660
2467.89510	0.03766
2466.93070	0.03836
2465.96630	0.03805
2465.00190	0.03755
2464.03750	0.03793
2463.07311	0.03820
2462.10871	0.03763
2461.14431	0.03723
2460.17991	0.03752
2459.21551	0.03791
2458.25111	0.03785
2457.28672	0.03780
2456.32232	0.03822
2455.35792	0.03841
2454.39352	0.03795
2453.42912	0.03756
2452.46472	0.03779
2451.50033	0.03797
2450.53593	0.03748
2449.57153	0.03691
2448.60713	0.03697
2447.64273	0.03733
2446.67834	0.03748
2445.71394	0.03741
2444.74954	0.03708
2443.78514	0.03687
2442.82074	0.03719
2441.85634	0.03765
2440.89195	0.03797
2439.92755	0.03795
2438.96315	0.03730
2437.99875	0.03676
2437.03435	0.03713
2436.06995	0.03774
2435.10556	0.03773
2434.14116	0.03736
2433.17676	0.03714
2432.21236	0.03696
2431.24796	0.03660
2430.28357	0.03607
2429.31917	0.03555
2428.35477	0.03531
2427.39037	0.03567
2426.42597	0.03652
2425.46157	0.03714
2424.49718	0.03719
2423.53278	0.03709
2422.56838	0.03688
2421.60398	0.03644
2420.63958	0.03613
2419.67518	0.03626
2418.71079	0.03683
2417.74639	0.03746
2416.78199	0.03781
2415.81759	0.03809
2414.85319	0.03805
2413.88880	0.03744
2412.92440	0.03679
2411.96000	0.03667
2410.99560	0.03730
2410.03120	0.03823
2409.06680	0.03843
2408.10241	0.03774
2407.13801	0.03699
2406.17361	0.03668
2405.20921	0.03668
2404.24481	0.03665
2403.28041	0.03619
2402.31602	0.03556
2401.35162	0.03576
2400.38722	0.03657
2399.42282	0.03738
2398.45842	0.03812
2397.49403	0.03820
2396.52963	0.03753
2395.56523	0.03716
2394.60083	0.03743
2393.63643	0.03759
2392.67203	0.03741
2391.70764	0.03743
2390.74324	0.03747
2389.77884	0.03705
2388.81444	0.03685
2387.85004	0.03759
2386.88564	0.03851
2385.92125	0.03846
2384.95685	0.03775
2383.99245	0.03712
2383.02805	0.03637
2382.06365	0.03569
2381.09925	0.03571
2380.13486	0.03599
2379.17046	0.03602
2378.20606	0.03585
2377.24166	0.03541
2376.27726	0.03505
2375.31287	0.03478
2374.34847	0.03387
2373.38407	0.03335
2372.41967	0.03458
2371.45527	0.03550
2370.49087	0.03447
2369.52648	0.03359
2368.56208	0.03400
2367.59768	0.03420
2366.63328	0.03346
2365.66888	0.03252
2364.70448	0.03338
2363.74009	0.03649
2362.77569	0.03875
2361.81129	0.03863
2360.84689	0.03759
2359.88249	0.03572
2358.91810	0.03312
2357.95370	0.03288
2356.98930	0.03665
2356.02490	0.04097
2355.06050	0.04320
2354.09610	0.04383
2353.13171	0.04389
2352.16731	0.04456
2351.20291	0.04617
2350.23851	0.04708
2349.27411	0.04570
2348.30971	0.04302
2347.34532	0.04106
2346.38092	0.04045
2345.41652	0.04114
2344.45212	0.04275
2343.48772	0.04312
2342.52333	0.04174
2341.55893	0.04104
2340.59453	0.04230
2339.63013	0.04322
2338.66573	0.04199
2337.70133	0.04059
2336.73694	0.04113
2335.77254	0.04266
2334.80814	0.04330
2333.84374	0.04284
2332.87934	0.04233
2331.91494	0.04305
2330.95055	0.04418
2329.98615	0.04413
2329.02175	0.04380
2328.05735	0.04427
2327.09295	0.04473
2326.12856	0.04591
2325.16416	0.04911
2324.19976	0.05161
2323.23536	0.05078
2322.27096	0.04852
2321.30656	0.04728
2320.34217	0.04719
2319.37777	0.04674
2318.41337	0.04545
2317.44897	0.04459
2316.48457	0.04498
2315.52017	0.04564
2314.55578	0.04567
2313.59138	0.04553
2312.62698	0.04535
2311.66258	0.04492
2310.69818	0.04411
2309.73379	0.04334
2308.76939	0.04338
2307.80499	0.04372
2306.84059	0.04371
2305.87619	0.04327
2304.91179	0.04215
2303.94740	0.04108
2302.98300	0.04135
2302.01860	0.04220
2301.05420	0.04225
2300.08980	0.04203
2299.12540	0.04192
2298.16101	0.04146
2297.19661	0.04108
2296.23221	0.04119
2295.26781	0.04155
2294.30341	0.04215
2293.33902	0.04266
2292.37462	0.04239
2291.41022	0.04212
2290.44582	0.04250
2289.48142	0.04263
2288.51702	0.04250
2287.55263	0.04289
2286.58823	0.04362
2285.62383	0.04383
2284.65943	0.04311
2283.69503	0.04178
2282.73063	0.04057
2281.76624	0.04011
2280.80184	0.03990
2279.83744	0.03943
2278.87304	0.03896
2277.90864	0.03866
2276.94425	0.03872
2275.97985	0.03910
2275.01545	0.03936
2274.05105	0.03922
2273.08665	0.03866
2272.12225	0.03833
2271.15786	0.03844
2270.19346	0.03808
2269.22906	0.03704
2268.26466	0.03636
2267.30026	0.03671
2266.33586	0.03744
2265.37147	0.03781
2264.40707	0.03817
2263.44267	0.03867
2262.47827	0.03874
2261.51387	0.03838
2260.54947	0.03794
2259.58508	0.03717
2258.62068	0.03586
2257.65628	0.03509
2256.69188	0.03574
2255.72748	0.03630
2254.76309	0.03582
2253.79869	0.03545
2252.83429	0.03489
2251.86989	0.03301
2250.90549	0.03095
2249.94109	0.02993
2248.97670	0.02922
2248.01230	0.02867
2247.04790	0.02886
2246.08350	0.02932
2245.11910	0.02930
2244.15470	0.02868
2243.19031	0.02754
2242.22591	0.02605
2241.26151	0.02536
2240.29711	0.02555
2239.33271	0.02447
2238.36832	0.02219
2237.40392	0.02148
2236.43952	0.02254
2235.47512	0.02325
2234.51072	0.02276
2233.54632	0.02248
2232.58193	0.02375
2231.61753	0.02482
2230.65313	0.02384
2229.68873	0.02263
2228.72433	0.02310
2227.75993	0.02469
2226.79554	0.02609
2225.83114	0.02604
2224.86674	0.02504
2223.90234	0.02496
2222.93794	0.02553
2221.97355	0.02569
2221.00915	0.02585
2220.04475	0.02589
2219.08035	0.02529
2218.11595	0.02536
2217.15155	0.02624
2216.18716	0.02579
2215.22276	0.02431
2214.25836	0.02398
2213.29396	0.02499
2212.32956	0.02506
2211.36516	0.02353
2210.40077	0.02326
2209.43637	0.02447
2208.47197	0.02476
2207.50757	0.02519
2206.54317	0.02670
2205.57878	0.02748
2204.61438	0.02748
2203.64998	0.02816
2202.68558	0.02936
2201.72118	0.02983
2200.75678	0.02880
2199.79239	0.02704
2198.82799	0.02592
2197.86359	0.02559
2196.89919	0.02650
2195.93479	0.02864
2194.97039	0.02916
2194.00600	0.02776
2193.04160	0.02812
2192.07720	0.03051
2191.11280	0.03211
2190.14840	0.03196
2189.18401	0.03091
2188.21961	0.03029
2187.25521	0.03009
2186.29081	0.02945
2185.32641	0.02915
2184.36201	0.02969
2183.39762	0.03053
2182.43322	0.03163
2181.46882	0.03187
2180.50442	0.03059
2179.54002	0.02944
2178.57562	0.02891
2177.61123	0.02790
2176.64683	0.02642
2175.68243	0.02466
2174.71803	0.02319
2173.75363	0.02330
2172.78924	0.02451
2171.82484	0.02630
2170.86044	0.02910
2169.89604	0.03120
2168.93164	0.03132
2167.96724	0.03122
2167.00285	0.03083
2166.03845	0.02796
2165.07405	0.02445
2164.10965	0.02356
2163.14525	0.02416
2162.18085	0.02504
2161.21646	0.02662
2160.25206	0.02587
2159.28766	0.02013
2158.32326	0.01255
2157.35886	0.00676
2156.39447	0.00532
2155.43007	0.00939
2154.46567	0.01394
2153.50127	0.01439
2152.53687	0.01329
2151.57247	0.01392
2150.60808	0.01706
2149.64368	0.02048
2148.67928	0.02041
2147.71488	0.01886
2146.75048	0.01928
2145.78608	0.02002
2144.82169	0.02036
2143.85729	0.02043
2142.89289	0.01923
2141.92849	0.01864
2140.96409	0.02018
2139.99969	0.02195
2139.03530	0.02278
2138.07090	0.02328
2137.10650	0.02348
2136.14210	0.02332
2135.17770	0.02231
2134.21331	0.02008
2133.24891	0.01838
2132.28451	0.01833
2131.32011	0.01944
2130.35571	0.02194
2129.39131	0.02503
2128.42692	0.02676
2127.46252	0.02684
2126.49812	0.02593
2125.53372	0.02525
2124.56932	0.02641
2123.60492	0.02867
2122.64053	0.03015
2121.67613	0.03065
2120.71173	0.03038
2119.74733	0.02988
2118.78293	0.03009
2117.81854	0.03057
2116.85414	0.03051
2115.88974	0.03064
2114.92534	0.03178
2113.96094	0.03269
2112.99654	0.03224
2112.03215	0.03133
2111.06775	0.03085
2110.10335	0.03102
2109.13895	0.03185
2108.17455	0.03256
2107.21015	0.03250
2106.24576	0.03272
2105.28136	0.03405
2104.31696	0.03464
2103.35256	0.03298
2102.38816	0.03064
2101.42377	0.02953
2100.45937	0.02969
2099.49497	0.03038
2098.53057	0.03110
2097.56617	0.03105
2096.60177	0.02960
2095.63738	0.02793
2094.67298	0.02745
2093.70858	0.02796
2092.74418	0.02931
2091.77978	0.03163
2090.81538	0.03306
2089.85099	0.03195
2088.88659	0.03009
2087.92219	0.02943
2086.95779	0.02947
2085.99339	0.02952
2085.02900	0.02966
2084.06460	0.03008
2083.10020	0.03081
2082.13580	0.03134
2081.17140	0.03162
2080.20700	0.03185
2079.24261	0.03174
2078.27821	0.03207
2077.31381	0.03301
2076.34941	0.03282
2075.38501	0.03176
2074.42061	0.03162
2073.45622	0.03219
2072.49182	0.03212
2071.52742	0.03111
2070.56302	0.03046
2069.59862	0.03066
2068.63423	0.03020
2067.66983	0.02877
2066.70543	0.02799
2065.74103	0.02859
2064.77663	0.02921
2063.81223	0.02835
2062.84784	0.02702
2061.88344	0.02765
2060.91904	0.02975
2059.95464	0.03081
2058.99024	0.03079
2058.02584	0.03096
2057.06145	0.03103
2056.09705	0.02982
2055.13265	0.02677
2054.16825	0.02345
2053.20385	0.02334
2052.23946	0.02729
2051.27506	0.03137
2050.31066	0.03187
2049.34626	0.02889
2048.38186	0.02426
2047.41746	0.02081
2046.45307	0.02051
2045.48867	0.02149
2044.52427	0.02148
2043.55987	0.02142
2042.59547	0.02336
2041.63107	0.02718
2040.66668	0.02992
2039.70228	0.02979
2038.73788	0.02866
2037.77348	0.02862
2036.80908	0.02893
2035.84469	0.02725
2034.88029	0.02352
2033.91589	0.02138
2032.95149	0.02298
2031.98709	0.02502
2031.02269	0.02449
2030.05830	0.02241
2029.09390	0.02032
2028.12950	0.01964
2027.16510	0.02077
2026.20070	0.02242
2025.23630	0.02449
2024.27191	0.02650
2023.30751	0.02618
2022.34311	0.02479
2021.37871	0.02507
2020.41431	0.02465
2019.44991	0.02212
2018.48552	0.02036
2017.52112	0.01984
2016.55672	0.02025
2015.59232	0.02274
2014.62792	0.02548
2013.66353	0.02560
2012.69913	0.02350
2011.73473	0.02173
2010.77033	0.02178
2009.80593	0.02154
2008.84153	0.01910
2007.87714	0.01664
2006.91274	0.01543
2005.94834	0.01414
2004.98394	0.01332
2004.01954	0.01526
2003.05514	0.01927
2002.09075	0.02163
2001.12635	0.02196
2000.16195	0.02207
1999.19755	0.02067
1998.23315	0.01693
1997.26876	0.01340
1996.30436	0.01323
1995.33996	0.01647
1994.37556	0.01946
1993.41116	0.02052
1992.44676	0.02198
1991.48237	0.02500
1990.51797	0.02772
1989.55357	0.02864
1988.58917	0.02797
1987.62477	0.02754
1986.66037	0.02840
1985.69598	0.02978
1984.73158	0.03087
1983.76718	0.03194
1982.80278	0.03334
1981.83838	0.03426
1980.87399	0.03540
1979.90959	0.03708
1978.94519	0.03603
1977.98079	0.03287
1977.01639	0.03137
1976.05199	0.03011
1975.08760	0.02811
1974.12320	0.02788
1973.15880	0.03064
1972.19440	0.03439
1971.23000	0.03661
1970.26560	0.03749
1969.30121	0.03790
1968.33681	0.03828
1967.37241	0.03921
1966.40801	0.04032
1965.44361	0.04057
1964.47922	0.04004
1963.51482	0.04028
1962.55042	0.04171
1961.58602	0.04350
1960.62162	0.04508
1959.65722	0.04496
1958.69283	0.04256
1957.72843	0.03953
1956.76403	0.03767
1955.79963	0.03770
1954.83523	0.03838
1953.87083	0.03791
1952.90644	0.03644
1951.94204	0.03512
1950.97764	0.03482
1950.01324	0.03526
1949.04884	0.03520
1948.08445	0.03476
1947.12005	0.03425
1946.15565	0.03294
1945.19125	0.03106
1944.22685	0.02941
1943.26245	0.02872
1942.29806	0.02867
1941.33366	0.02767
1940.36926	0.02641
1939.40486	0.02656
1938.44046	0.02737
1937.47606	0.02724
1936.51167	0.02646
1935.54727	0.02610
1934.58287	0.02620
1933.61847	0.02689
1932.65407	0.02811
1931.68968	0.02877
1930.72528	0.02855
1929.76088	0.02814
1928.79648	0.02796
1927.83208	0.02806
1926.86768	0.02770
1925.90329	0.02652
1924.93889	0.02552
1923.97449	0.02570
1923.01009	0.02701
1922.04569	0.02809
1921.08129	0.02853
1920.11690	0.02888
1919.15250	0.02980
1918.18810	0.03218
1917.22370	0.03422
1916.25930	0.03475
1915.29490	0.03595
1914.33051	0.03776
1913.36611	0.03903
1912.40171	0.04018
1911.43731	0.04106
1910.47291	0.04119
1909.50852	0.04119
1908.54412	0.04210
1907.57972	0.04386
1906.61532	0.04500
1905.65092	0.04492
1904.68652	0.04460
1903.72213	0.04427
1902.75773	0.04373
1901.79333	0.04361
1900.82893	0.04423
1899.86453	0.04558
1898.90013	0.04722
1897.93574	0.04820
1896.97134	0.04861
1896.00694	0.04961
1895.04254	0.05150
1894.07814	0.05327
1893.11375	0.05456
1892.14935	0.05544
1891.18495	0.05569
1890.22055	0.05638
1889.25615	0.05794
1888.29175	0.05815
1887.32736	0.05655
1886.36296	0.05459
1885.39856	0.05282
1884.43416	0.05102
1883.46976	0.04883
1882.50536	0.04620
1881.54097	0.04403
1880.57657	0.04276
1879.61217	0.04178
1878.64777	0.04063
1877.68337	0.03913
1876.71898	0.03753
1875.75458	0.03667
1874.79018	0.03678
1873.82578	0.03667
1872.86138	0.03564
1871.89698	0.03464
1870.93259	0.03372
1869.96819	0.03296
1869.00379	0.03342
1868.03939	0.03390
1867.07499	0.03332
1866.11059	0.03285
1865.14620	0.03274
1864.18180	0.03246
1863.21740	0.03215
1862.25300	0.03216
1861.28860	0.03249
1860.32421	0.03306
1859.35981	0.03354
1858.39541	0.03352
1857.43101	0.03321
1856.46661	0.03336
1855.50221	0.03427
1854.53782	0.03543
1853.57342	0.03619
1852.60902	0.03654
1851.64462	0.03691
1850.68022	0.03689
1849.71582	0.03646
1848.75143	0.03712
1847.78703	0.03886
1846.82263	0.03939
1845.85823	0.03849
1844.89383	0.04003
1843.92944	0.04499
1842.96504	0.04653
1842.00064	0.04501
1841.03624	0.04436
1840.07184	0.04495
1839.10744	0.04560
1838.14305	0.04608
1837.17865	0.04654
1836.21425	0.04672
1835.24985	0.04682
1834.28545	0.04747
1833.32105	0.04835
1832.35666	0.04851
1831.39226	0.04838
1830.42786	0.05085
1829.46346	0.05530
1828.49906	0.05635
1827.53467	0.05436
1826.57027	0.05286
1825.60587	0.05422
1824.64147	0.05661
1823.67707	0.05668
1822.71267	0.05562
1821.74828	0.05456
1820.78388	0.05345
1819.81948	0.05238
1818.85508	0.05086
1817.89068	0.04933
1816.92628	0.04850
1815.96189	0.04780
1814.99749	0.04677
1814.03309	0.04542
1813.06869	0.04364
1812.10429	0.04192
1811.13990	0.04126
1810.17550	0.04112
1809.21110	0.04016
1808.24670	0.03902
1807.28230	0.03858
1806.31790	0.03825
1805.35351	0.03735
1804.38911	0.03608
1803.42471	0.03563
1802.46031	0.03664
1801.49591	0.03735
1800.53151	0.03743
1799.56712	0.03800
1798.60272	0.03772
1797.63832	0.03636
1796.67392	0.03590
1795.70952	0.03631
1794.74512	0.03562
1793.78073	0.03483
1792.81633	0.03696
1791.85193	0.04000
1790.88753	0.04028
1789.92313	0.03909
1788.95874	0.03803
1787.99434	0.03781
1787.02994	0.03837
1786.06554	0.03945
1785.10114	0.04118
1784.13674	0.04246
1783.17235	0.04244
1782.20795	0.04245
1781.24355	0.04420
1780.27915	0.04705
1779.31475	0.04859
1778.35035	0.04876
1777.38596	0.04853
1776.42156	0.04872
1775.45716	0.04937
1774.49276	0.04884
1773.52836	0.04813
1772.56397	0.05046
1771.59957	0.05315
1770.63517	0.05179
1769.67077	0.04858
1768.70637	0.04709
1767.74197	0.04737
1766.77758	0.04602
1765.81318	0.04376
1764.84878	0.04228
1763.88438	0.04073
1762.91998	0.03963
1761.95558	0.04098
1760.99119	0.04197
1760.02679	0.04006
1759.06239	0.03781
1758.09799	0.03688
1757.13359	0.03760
1756.16920	0.03850
1755.20480	0.03768
1754.24040	0.03625
1753.27600	0.03487
1752.31160	0.03444
1751.34720	0.03658
1750.38281	0.03794
1749.41841	0.03722
1748.45401	0.03727
1747.48961	0.03757
1746.52521	0.03684
1745.56081	0.03566
1744.59642	0.03501
1743.63202	0.03555
1742.66762	0.03570
1741.70322	0.03410
1740.73882	0.03336
1739.77443	0.03583
1738.81003	0.03745
1737.84563	0.03649
1736.88123	0.03492
1735.91683	0.03304
1734.95243	0.03337
1733.98804	0.03914
1733.02364	0.04122
1732.05924	0.03816
1731.09484	0.03559
1730.13044	0.03556
1729.16604	0.03612
1728.20165	0.03572
1727.23725	0.03535
1726.27285	0.03512
1725.30845	0.03469
1724.34405	0.03462
1723.37966	0.03512
1722.41526	0.03529
1721.45086	0.03465
1720.48646	0.03331
1719.52206	0.03200
1718.55766	0.03354
1717.59327	0.03813
1716.62887	0.03877
1715.66447	0.03715
1714.70007	0.03730
1713.73567	0.03761
1712.77127	0.03648
1711.80688	0.03540
1710.84248	0.03512
1709.87808	0.03529
1708.91368	0.03504
1707.94928	0.03440
1706.98489	0.03459
1706.02049	0.03541
1705.05609	0.03596
1704.09169	0.03626
1703.12729	0.03494
1702.16289	0.03137
1701.19850	0.02962
1700.23410	0.03813
1699.26970	0.04219
1698.30530	0.03802
1697.34090	0.03387
1696.37650	0.03468
1695.41211	0.03968
1694.44771	0.03905
1693.48331	0.03582
1692.51891	0.03386
1691.55451	0.03314
1690.59012	0.03349
1689.62572	0.03440
1688.66132	0.03471
1687.69692	0.03420
1686.73252	0.03224
1685.76812	0.02999
1684.80373	0.03322
1683.83933	0.04101
1682.87493	0.04095
1681.91053	0.03743
1680.94613	0.03550
1679.98173	0.03586
1679.01734	0.03630
1678.05294	0.03576
1677.08854	0.03450
1676.12414	0.03514
1675.15974	0.04093
1674.19534	0.04403
1673.23095	0.04257
1672.26655	0.04228
1671.30215	0.04364
1670.33775	0.04460
1669.37335	0.04748
1668.40896	0.05020
1667.44456	0.04905
1666.48016	0.04720
1665.51576	0.04627
1664.55136	0.04540
1663.58696	0.04563
1662.62257	0.04803
1661.65817	0.04893
1660.69377	0.04760
1659.72937	0.04656
1658.76497	0.04600
1657.80057	0.04520
1656.83618	0.04372
1655.87178	0.04134
1654.90738	0.03848
1653.94298	0.03778
1652.97858	0.04505
1652.01419	0.04743
1651.04979	0.04307
1650.08539	0.03869
1649.12099	0.03640
1648.15659	0.03640
1647.19219	0.03708
1646.22780	0.03789
1645.26340	0.03775
1644.29900	0.03569
1643.33460	0.03355
1642.37020	0.03235
1641.40580	0.03158
1640.44141	0.03110
1639.47701	0.03072
1638.51261	0.03049
1637.54821	0.03027
1636.58381	0.03016
1635.61942	0.03358
1634.65502	0.03665
1633.69062	0.03447
1632.72622	0.03197
1631.76182	0.03113
1630.79742	0.03092
1629.83303	0.03056
1628.86863	0.03060
1627.90423	0.03197
1626.93983	0.03306
1625.97543	0.03244
1625.01103	0.03152
1624.04664	0.03300
1623.08224	0.03658
1622.11784	0.03774
1621.15344	0.03754
1620.18904	0.03834
1619.22465	0.03898
1618.26025	0.03843
1617.29585	0.03989
1616.33145	0.04412
1615.36705	0.04376
1614.40265	0.04075
1613.43826	0.03874
1612.47386	0.03799
1611.50946	0.03773
1610.54506	0.03765
1609.58066	0.03779
1608.61626	0.03773
1607.65187	0.03760
1606.68747	0.03788
1605.72307	0.03813
1604.75867	0.03807
1603.79427	0.03822
1602.82988	0.03865
1601.86548	0.03875
1600.90108	0.03843
1599.93668	0.03817
1598.97228	0.03821
1598.00788	0.03842
1597.04349	0.03885
1596.07909	0.03999
1595.11469	0.04305
1594.15029	0.04970
1593.18589	0.06223
1592.22149	0.08373
1591.25710	0.11369
1590.29270	0.14336
1589.32830	0.16010
1588.36390	0.15774
1587.39950	0.14194
1586.43511	0.12264
1585.47071	0.10421
1584.50631	0.08703
1583.54191	0.07302
1582.57751	0.06404
1581.61311	0.05918
1580.64872	0.05599
1579.68432	0.05270
1578.71992	0.04892
1577.75552	0.04503
1576.79112	0.04345
1575.82672	0.04510
1574.86233	0.04412
1573.89793	0.04167
1572.93353	0.04084
1571.96913	0.04169
1571.00473	0.04548
1570.04034	0.05822
1569.07594	0.07529
1568.11154	0.08047
1567.14714	0.07607
1566.18274	0.06802
1565.21834	0.05963
1564.25395	0.05323
1563.28955	0.04862
1562.32515	0.04463
1561.36075	0.04145
1560.39635	0.04171
1559.43195	0.04752
1558.46756	0.05159
1557.50316	0.04982
1556.53876	0.04528
1555.57436	0.04149
1554.60996	0.04140
1553.64556	0.04252
1552.68117	0.04075
1551.71677	0.03833
1550.75237	0.03768
1549.78797	0.03854
1548.82357	0.03811
1547.85918	0.03612
1546.89478	0.03424
1545.93038	0.03397
1544.96598	0.03515
1544.00158	0.03459
1543.03718	0.03290
1542.07279	0.03297
1541.10839	0.03324
1540.14399	0.03383
1539.17959	0.03692
1538.21519	0.03640
1537.25079	0.03299
1536.28640	0.02991
1535.32200	0.02816
1534.35760	0.02886
1533.39320	0.03163
1532.42880	0.03188
1531.46441	0.02974
1530.50001	0.02759
1529.53561	0.02632
1528.57121	0.02641
1527.60681	0.02679
1526.64241	0.02662
1525.67802	0.02723
1524.71362	0.02746
1523.74922	0.02595
1522.78482	0.02484
1521.82042	0.02659
1520.85602	0.02954
1519.89163	0.02887
1518.92723	0.02606
1517.96283	0.02508
1516.99843	0.02705
1516.03403	0.02745
1515.06964	0.02583
1514.10524	0.02429
1513.14084	0.02386
1512.17644	0.02473
1511.21204	0.02484
1510.24764	0.02405
1509.28325	0.02366
1508.31885	0.02391
1507.35445	0.02633
1506.39005	0.03060
1505.42565	0.03024
1504.46125	0.02704
1503.49686	0.02445
1502.53246	0.02333
1501.56806	0.02312
1500.60366	0.02269
1499.63926	0.02270
1498.67487	0.02359
1497.71047	0.02358
1496.74607	0.02395
1495.78167	0.02559
1494.81727	0.02557
1493.85287	0.02512
1492.88848	0.02581
1491.92408	0.02749
1490.95968	0.03291
1489.99528	0.04520
1489.03088	0.06027
1488.06648	0.08067
1487.10209	0.11279
1486.13769	0.14697
1485.17329	0.17145
1484.20889	0.17908
1483.24449	0.16345
1482.28010	0.13295
1481.31570	0.10352
1480.35130	0.08363
1479.38690	0.07141
1478.42250	0.06255
1477.45810	0.05549
1476.49371	0.05003
1475.52931	0.04507
1474.56491	0.04001
1473.60051	0.03662
1472.63611	0.03620
1471.67171	0.03574
1470.70732	0.03342
1469.74292	0.03069
1468.77852	0.02885
1467.81412	0.02770
1466.84972	0.02636
1465.88533	0.02564
1464.92093	0.02669
1463.95653	0.02716
1462.99213	0.02566
1462.02773	0.02418
1461.06333	0.02319
1460.09894	0.02237
1459.13454	0.02198
1458.17014	0.02195
1457.20574	0.02370
1456.24134	0.02555
1455.27694	0.02420
1454.31255	0.02192
1453.34815	0.02091
1452.38375	0.02102
1451.41935	0.02053
1450.45495	0.01879
1449.49055	0.01665
1448.52616	0.01551
1447.56176	0.01533
1446.59736	0.01447
1445.63296	0.01325
1444.66856	0.01259
1443.70417	0.01234
1442.73977	0.01207
1441.77537	0.01210
1440.81097	0.01183
1439.84657	0.01030
1438.88217	0.00769
1437.91778	0.00532
1436.95338	0.00669
1435.98898	0.01216
1435.02458	0.02076
1434.06018	0.04309
1433.09578	0.09647
1432.13139	0.18435
1431.16699	0.29640
1430.20259	0.43700
1429.23819	0.60031
1428.27379	0.74794
1427.30940	0.84018
1426.34500	0.83645
1425.38060	0.74033
1424.41620	0.59471
1423.45180	0.45320
1422.48740	0.35561
1421.52301	0.29583
1420.55861	0.25734
1419.59421	0.22950
1418.62981	0.20543
1417.66541	0.18230
1416.70101	0.16099
1415.73662	0.14465
1414.77222	0.13282
1413.80782	0.12374
1412.84342	0.11666
1411.87902	0.11114
1410.91463	0.10652
1409.95023	0.10201
1408.98583	0.09789
1408.02143	0.09433
1407.05703	0.09105
1406.09263	0.08818
1405.12824	0.08626
1404.16384	0.08431
1403.19944	0.08170
1402.23504	0.07955
1401.27064	0.07770
1400.30624	0.07624
1399.34185	0.07648
1398.37745	0.07760
1397.41305	0.07794
1396.44865	0.07871
1395.48425	0.08215
1394.51986	0.08888
1393.55546	0.09559
1392.59106	0.10096
1391.62666	0.10633
1390.66226	0.10993
1389.69786	0.10925
1388.73347	0.10574
1387.76907	0.10274
1386.80467	0.10103
1385.84027	0.09885
1384.87587	0.09656
1383.91147	0.09493
1382.94708	0.09393
1381.98268	0.09359
1381.01828	0.09316
1380.05388	0.09207
1379.08948	0.09067
1378.12509	0.08931
1377.16069	0.08732
1376.19629	0.08456
1375.23189	0.08214
1374.26749	0.08009
1373.30309	0.07722
1372.33870	0.07352
1371.37430	0.07007
1370.40990	0.06732
1369.44550	0.06531
1368.48110	0.06382
1367.51670	0.06204
1366.55231	0.06020
1365.58791	0.05902
1364.62351	0.05824
1363.65911	0.05769
1362.69471	0.05711
1361.73032	0.05578
1360.76592	0.05407
1359.80152	0.05260
1358.83712	0.05145
1357.87272	0.05043
1356.90832	0.04926
1355.94393	0.04818
1354.97953	0.04743
1354.01513	0.04684
1353.05073	0.04624
1352.08633	0.04549
1351.12193	0.04470
1350.15754	0.04402
1349.19314	0.04322
1348.22874	0.04241
1347.26434	0.04192
1346.29994	0.04158
1345.33555	0.04098
1344.37115	0.04047
1343.40675	0.04051
1342.44235	0.04098
1341.47795	0.04231
1340.51355	0.04556
1339.54916	0.05096
1338.58476	0.05756
1337.62036	0.06458
1336.65596	0.07158
1335.69156	0.07759
1334.72716	0.08174
1333.76277	0.08450
1332.79837	0.08643
1331.83397	0.08739
1330.86957	0.08711
1329.90517	0.08539
1328.94077	0.08239
1327.97638	0.07843
1327.01198	0.07410
1326.04758	0.07015
1325.08318	0.06682
1324.11878	0.06405
1323.15439	0.06171
1322.18999	0.05960
1321.22559	0.05780
1320.26119	0.05673
1319.29679	0.05629
1318.33239	0.05588
1317.36800	0.05558
1316.40360	0.05572
1315.43920	0.05632
1314.47480	0.05750
1313.51040	0.05953
1312.54600	0.06239
1311.58161	0.06615
1310.61721	0.07111
1309.65281	0.07707
1308.68841	0.08344
1307.72401	0.08922
1306.75962	0.09332
1305.79522	0.09555
1304.83082	0.09630
1303.86642	0.09553
1302.90202	0.09304
1301.93762	0.08941
1300.97323	0.08538
1300.00883	0.08124
1299.04443	0.07720
1298.08003	0.07354
1297.11563	0.07038
1296.15123	0.06772
1295.18684	0.06560
1294.22244	0.06402
1293.25804	0.06279
1292.29364	0.06171
1291.32924	0.06050
1290.36485	0.05906
1289.40045	0.05762
1288.43605	0.05632
1287.47165	0.05489
1286.50725	0.05318
1285.54285	0.05157
1284.57846	0.05007
1283.61406	0.04848
1282.64966	0.04696
1281.68526	0.04541
1280.72086	0.04365
1279.75646	0.04192
1278.79207	0.04049
1277.82767	0.03946
1276.86327	0.03883
1275.89887	0.03849
1274.93447	0.03828
1273.97008	0.03824
1273.00568	0.03870
1272.04128	0.03995
1271.07688	0.04186
1270.11248	0.04433
1269.14808	0.04810
1268.18369	0.05360
1267.21929	0.05988
1266.25489	0.06589
1265.29049	0.07139
1264.32609	0.07621
1263.36169	0.08022
1262.39730	0.08345
1261.43290	0.08574
1260.46850	0.08687
1259.50410	0.08677
1258.53970	0.08520
1257.57531	0.08192
1256.61091	0.07696
1255.64651	0.07079
1254.68211	0.06413
1253.71771	0.05761
1252.75331	0.05167
1251.78892	0.04675
1250.82452	0.04296
1249.86012	0.03983
1248.89572	0.03727
1247.93132	0.03542
1246.96692	0.03388
1246.00253	0.03245
1245.03813	0.03130
1244.07373	0.03043
1243.10933	0.02963
1242.14493	0.02888
1241.18054	0.02844
1240.21614	0.02814
1239.25174	0.02766
1238.28734	0.02694
1237.32294	0.02607
1236.35854	0.02524
1235.39415	0.02424
1234.42975	0.02304
1233.46535	0.02231
1232.50095	0.02226
1231.53655	0.02243
1230.57215	0.02247
1229.60776	0.02227
1228.64336	0.02190
1227.67896	0.02143
1226.71456	0.02093
1225.75016	0.02072
1224.78577	0.02077
1223.82137	0.02067
1222.85697	0.02050
1221.89257	0.02042
1220.92817	0.02018
1219.96377	0.01963
1218.99938	0.01890
1218.03498	0.01835
1217.07058	0.01802
1216.10618	0.01763
1215.14178	0.01705
1214.17738	0.01654
1213.21299	0.01626
1212.24859	0.01598
1211.28419	0.01545
1210.31979	0.01475
1209.35539	0.01412
1208.39099	0.01362
1207.42660	0.01332
1206.46220	0.01330
1205.49780	0.01329
1204.53340	0.01305
1203.56900	0.01285
1202.60461	0.01282
1201.64021	0.01293
1200.67581	0.01332
1199.71141	0.01390
1198.74701	0.01460
1197.78261	0.01595
1196.81822	0.01855
1195.85382	0.02242
1194.88942	0.02731
1193.92502	0.03333
1192.96062	0.04062
1191.99622	0.04899
1191.03183	0.05820
1190.06743	0.06791
1189.10303	0.07770
1188.13863	0.08661
1187.17423	0.09354
1186.20984	0.09811
1185.24544	0.10012
1184.28104	0.09865
1183.31664	0.09271
1182.35224	0.08319
1181.38784	0.07278
1180.42345	0.06366
1179.45905	0.05642
1178.49465	0.05077
1177.53025	0.04632
1176.56585	0.04268
1175.60145	0.03959
1174.63706	0.03704
1173.67266	0.03492
1172.70826	0.03318
1171.74386	0.03180
1170.77946	0.03070
1169.81507	0.03002
1168.85067	0.02992
1167.88627	0.03049
1166.92187	0.03160
1165.95747	0.03294
1164.99307	0.03450
1164.02868	0.03659
1163.06428	0.03946
1162.09988	0.04302
1161.13548	0.04706
1160.17108	0.05148
1159.20668	0.05607
1158.24229	0.06004
1157.27789	0.06232
1156.31349	0.06223
1155.34909	0.06018
1154.38469	0.05716
1153.42030	0.05385
1152.45590	0.05092
1151.49150	0.04890
1150.52710	0.04773
1149.56270	0.04708
1148.59830	0.04676
1147.63391	0.04674
1146.66951	0.04738
1145.70511	0.04874
1144.74071	0.05022
1143.77631	0.05139
1142.81191	0.05243
1141.84752	0.05380
1140.88312	0.05569
1139.91872	0.05784
1138.95432	0.06001
1137.98992	0.06206
1137.02553	0.06407
1136.06113	0.06672
1135.09673	0.07055
1134.13233	0.07529
1133.16793	0.08085
1132.20353	0.08812
1131.23914	0.09788
1130.27474	0.11053
1129.31034	0.12733
1128.34594	0.15013
1127.38154	0.18100
1126.41714	0.22361
1125.45275	0.28247
1124.48835	0.36020
1123.52395	0.45594
1122.55955	0.56513
1121.59515	0.67932
1120.63076	0.78705
1119.66636	0.87774
1118.70196	0.94491
1117.73756	0.98384
1116.77316	0.98945
1115.80876	0.96121
1114.84437	0.90718
1113.87997	0.84304
1112.91557	0.78756
1111.95117	0.75426
1110.98677	0.74518
1110.02237	0.75123
1109.05798	0.75766
1108.09358	0.75299
1107.12918	0.73333
1106.16478	0.69844
1105.20038	0.65045
1104.23598	0.59655
1103.27159	0.54602
1102.30719	0.50426
1101.34279	0.47107
1100.37839	0.44377
1099.41399	0.42010
1098.44960	0.39814
1097.48520	0.37643
1096.52080	0.35484
1095.55640	0.33434
1094.59200	0.31630
1093.62760	0.30186
1092.66321	0.29154
1091.69881	0.28506
1090.73441	0.28168
1089.77001	0.28067
1088.80561	0.28147
1087.84121	0.28418
1086.87682	0.28896
1085.91242	0.29479
1084.94802	0.30049
1083.98362	0.30589
1083.01922	0.31146
1082.05483	0.31685
1081.09043	0.32078
1080.12603	0.32302
1079.16163	0.32422
1078.19723	0.32413
1077.23283	0.32268
1076.26844	0.32078
1075.30404	0.31915
1074.33964	0.31818
1073.37524	0.31817
1072.41084	0.31883
1071.44644	0.31909
1070.48205	0.31788
1069.51765	0.31482
1068.55325	0.31016
1067.58885	0.30437
1066.62445	0.29766
1065.66006	0.28982
1064.69566	0.28060
1063.73126	0.27007
1062.76686	0.25873
1061.80246	0.24759
1060.83806	0.23790
1059.87367	0.23052
1058.90927	0.22550
1057.94487	0.22186
1056.98047	0.21867
1056.01607	0.21624
1055.05167	0.21494
1054.08728	0.21410
1053.12288	0.21309
1052.15848	0.21219
1051.19408	0.21178
1050.22968	0.21181
1049.26529	0.21176
1048.30089	0.21126
1047.33649	0.21059
1046.37209	0.21008
1045.40769	0.20950
1044.44329	0.20870
1043.47890	0.20770
1042.51450	0.20643
1041.55010	0.20471
1040.58570	0.20287
1039.62130	0.20156
1038.65690	0.20055
1037.69251	0.19925
1036.72811	0.19767
1035.76371	0.19642
1034.79931	0.19673
1033.83491	0.20095
1032.87052	0.21203
1031.90612	0.23021
1030.94172	0.25080
1029.97732	0.26849
1029.01292	0.28120
1028.04852	0.28667
1027.08413	0.28164
1026.11973	0.26731
1025.15533	0.24997
1024.19093	0.23503
1023.22653	0.22407
1022.26213	0.21656
1021.29774	0.21124
1020.33334	0.20730
1019.36894	0.20456
1018.40454	0.20252
1017.44014	0.20048
1016.47575	0.19824
1015.51135	0.19603
1014.54695	0.19432
1013.58255	0.19321
1012.61815	0.19204
1011.65375	0.19047
1010.68936	0.18878
1009.72496	0.18727
1008.76056	0.18578
1007.79616	0.18399
1006.83176	0.18254
1005.86736	0.18249
1004.90297	0.18391
1003.93857	0.18694
1002.97417	0.19417
1002.00977	0.21123
1001.04537	0.24417
1000.08098	0.29324
999.11658	0.34521
998.15218	0.37555
997.18778	0.36852
996.22338	0.33338
995.25898	0.29266
994.29459	0.26051
993.33019	0.23839
992.36579	0.22300
991.40139	0.21163
990.43699	0.20353
989.47259	0.19885
988.50820	0.19644
987.54380	0.19384
986.57940	0.18961
985.61500	0.18415
984.65060	0.17874
983.68620	0.17482
982.72181	0.17291
981.75741	0.17119
980.79301	0.16721
979.82861	0.16126
978.86421	0.15566
977.89982	0.15159
976.93542	0.14910
975.97102	0.14787
975.00662	0.14681
974.04222	0.14486
973.07782	0.14207
972.11343	0.13907
971.14903	0.13609
970.18463	0.13284
969.22023	0.12895
968.25583	0.12428
967.29143	0.11903
966.32704	0.11370
965.36264	0.10876
964.39824	0.10483
963.43384	0.10225
962.46944	0.10045
961.50505	0.09883
960.54065	0.09741
959.57625	0.09663
958.61185	0.09702
957.64745	0.09882
956.68305	0.10209
955.71866	0.10725
954.75426	0.11440
953.78986	0.12308
952.82546	0.13273
951.86106	0.14229
950.89666	0.14985
949.93227	0.15351
948.96787	0.15251
948.00347	0.14766
947.03907	0.14035
946.07467	0.13170
945.11028	0.12274
944.14588	0.11419
943.18148	0.10636
942.21708	0.09965
941.25268	0.09400
940.28828	0.08866
939.32389	0.08348
938.35949	0.07882
937.39509	0.07442
936.43069	0.06993
935.46629	0.06555
934.50189	0.06138
933.53750	0.05744
932.57310	0.05371
931.60870	0.05024
930.64430	0.04734
929.67990	0.04493
928.71551	0.04280
927.75111	0.04137
926.78671	0.04108
925.82231	0.04181
924.85791	0.04309
923.89351	0.04410
922.92912	0.04429
921.96472	0.04391
921.00032	0.04377
920.03592	0.04445
919.07152	0.04592
918.10712	0.04780
917.14273	0.04923
916.17833	0.04859
915.21393	0.04442
914.24953	0.03730
913.28513	0.02965
912.32074	0.02348
911.35634	0.01916
910.39194	0.01601
909.42754	0.01347
908.46314	0.01137
907.49874	0.00973
906.53435	0.00852
905.56995	0.00737
904.60555	0.00616
903.64115	0.00532
902.67675	0.00539
901.71235	0.00629
900.74796	0.00691
899.78356	0.00702
898.81916	0.00746
897.85476	0.00884
896.89036	0.01079
895.92597	0.01246
894.96157	0.01349
893.99717	0.01368
893.03277	0.01340
892.06837	0.01349
891.10397	0.01365
890.13958	0.01307
889.17518	0.01213
888.21078	0.01171
887.24638	0.01184
886.28198	0.01231
885.31758	0.01328
884.35319	0.01469
883.38879	0.01646
882.42439	0.01892
881.45999	0.02256
880.49559	0.02744
879.53120	0.03345
878.56680	0.04076
877.60240	0.04930
876.63800	0.05936
875.67360	0.07197
874.70920	0.08726
873.74481	0.10449
872.78041	0.12386
871.81601	0.14640
870.85161	0.17223
869.88721	0.20080
868.92281	0.23165
867.95842	0.26343
866.99402	0.29455
866.02962	0.32404
865.06522	0.35131
864.10082	0.37670
863.13642	0.40057
862.17203	0.42243
861.20763	0.44255
860.24323	0.46214
859.27883	0.48154
858.31443	0.50018
857.35004	0.51789
856.38564	0.53469
855.42124	0.54903
854.45684	0.55782
853.49244	0.55915
852.52804	0.55335
851.56365	0.54159
850.59925	0.52593
849.63485	0.50918
848.67045	0.49305
847.70605	0.47787
846.74165	0.46516
845.77726	0.45785
844.81286	0.45784
843.84846	0.46580
842.88406	0.48147
841.91966	0.50321
840.95527	0.52941
839.99087	0.55875
839.02647	0.58933
838.06207	0.61887
837.09767	0.64591
836.13327	0.67045
835.16888	0.69244
834.20448	0.71033
833.24008	0.72223
832.27568	0.72743
831.31128	0.72618
830.34688	0.71852
829.38249	0.70441
828.41809	0.68462
827.45369	0.66125
826.48929	0.63626
825.52489	0.60987
824.56050	0.58165
823.59610	0.55208
822.63170	0.52252
821.66730	0.49383
820.70290	0.46622
819.73850	0.44006
818.77411	0.41568
817.80971	0.39277
816.84531	0.37041
815.88091	0.34863
814.91651	0.32893
813.95211	0.31146
812.98772	0.29471
812.02332	0.27852
811.05892	0.26402
810.09452	0.25072
809.13012	0.23728
808.16573	0.22424
807.20133	0.21280
806.23693	0.20230
805.27253	0.19190
804.30813	0.18238
803.34373	0.17384
802.37934	0.16557
801.41494	0.15759
800.45054	0.14972
799.48614	0.14182
798.52174	0.13467
797.55734	0.12874
796.59295	0.12370
795.62855	0.11884
794.66415	0.11356
793.69975	0.10809
792.73535	0.10337
791.77096	0.09969
790.80656	0.09658
789.84216	0.09338
788.87776	0.08971
787.91336	0.08575
786.94896	0.08206
785.98457	0.07899
785.02017	0.07634
784.05577	0.07393
783.09137	0.07178
782.12697	0.06928
781.16257	0.06613
780.19818	0.06299
779.23378	0.06025
778.26938	0.05781
777.30498	0.05602
776.34058	0.05523
775.37619	0.05508
774.41179	0.05579
773.44739	0.05795
772.48299	0.06078
771.51859	0.06356
770.55419	0.06677
769.58980	0.07003
768.62540	0.07233
767.66100	0.07305
766.69660	0.07169
765.73220	0.06882
764.76780	0.06564
763.80341	0.06215
762.83901	0.05788
761.87461	0.05314
760.91021	0.04802
759.94581	0.04253
758.98142	0.03752
758.01702	0.03353
757.05262	0.03081
756.08822	0.03047
755.12382	0.03378
754.15942	0.04238
753.19503	0.05930
752.23063	0.08858
751.26623	0.13212
750.30183	0.18336
749.33743	0.22710
748.37303	0.25291
747.40864	0.26510
746.44424	0.27305
745.47984	0.28074
744.51544	0.29172
743.55104	0.31481
742.58664	0.35525
741.62225	0.40403
740.65785	0.44772
739.69345	0.48477
738.72905	0.51945
737.76465	0.54639
736.80026	0.54955
735.83586	0.51621
734.87146	0.45139
733.90706	0.37315
732.94266	0.29767
731.97826	0.23446
731.01387	0.18706
730.04947	0.15398
729.08507	0.13205
728.12067	0.11852
727.15627	0.11139
726.19187	0.10968
725.22748	0.11315
724.26308	0.12226
723.29868	0.13751
722.33428	0.15916
721.36988	0.19094
720.40549	0.24091
719.44109	0.31333
718.47669	0.40782
717.51229	0.52476
716.54789	0.65875
715.58349	0.79702
714.61910	0.92783
713.65470	1.04729
712.69030	1.15678
711.72590	1.25451
710.76150	1.33193
709.79710	1.37671
708.83271	1.38215
707.86831	1.35126
706.90391	1.29155
705.93951	1.21448
704.97511	1.13936
704.01072	1.08990
703.04632	1.08779
702.08192	1.14473
701.11752	1.25651
700.15312	1.40746
699.18872	1.57706
698.22433	1.74185
697.25993	1.87422
696.29553	1.94726
695.33113	1.94617
694.36673	1.87577
693.40233	1.75787
692.43794	1.61779
691.47354	1.47635
690.50914	1.34557
689.54474	1.22870
688.58034	1.12587
687.61595	1.03687
686.65155	0.96129
685.68715	0.89782
684.72275	0.84463
683.75835	0.79977
682.79395	0.76184
681.82956	0.73002
680.86516	0.70393
679.90076	0.68292
678.93636	0.66475
677.97196	0.64780
677.00756	0.63265
676.04317	0.61982
675.07877	0.60847
674.11437	0.59726
673.14997	0.58588
672.18557	0.57430
671.22118	0.56142
670.25678	0.54636
669.29238	0.53091
668.32798	0.51962
667.36358	0.50773
666.39918	0.49070
665.43479	0.47368
664.47039	0.45876
663.50599	0.44603
662.54159	0.43419
661.57719	0.42298
660.61279	0.41324
659.64840	0.40514
658.68400	0.39777
657.71960	0.39050
656.75520	0.38326
655.79080	0.37666
654.82641	0.37148
653.86201	0.36732
652.89761	0.36305
651.93321	0.35842
650.96881	0.35459
650.00441	0.35226
649.04002	0.35015
648.07562	0.34649
647.11122	0.34148
646.14682	0.33712
645.18242	0.33425
644.21802	0.33193
643.25363	0.32952
642.28923	0.32700
641.32483	0.32340
640.36043	0.31840
639.39603	0.31359
638.43163	0.31035
637.46724	0.30831
636.50284	0.30626
635.53844	0.30392
634.57404	0.30160
633.60964	0.29909
632.64525	0.29542
631.68085	0.29068
630.71645	0.28660
629.75205	0.28408
628.78765	0.28243
627.82325	0.27991
626.85886	0.27560
625.89446	0.27069
624.93006	0.26609
623.96566	0.26195
623.00126	0.25945
622.03686	0.25958
621.07247	0.26061
620.10807	0.25948
619.14367	0.25556
618.17927	0.25004
617.21487	0.24433
616.25048	0.24023
615.28608	0.23785
614.32168	0.23527
613.35728	0.23150
612.39288	0.22769
611.42848	0.22502
610.46409	0.22263
609.49969	0.21947
608.53529	0.21624
607.57089	0.21282
606.60649	0.20862
605.64209	0.20470
604.67770	0.20155
603.71330	0.19883
602.74890	0.19691
601.78450	0.19539
600.82010	0.19285
599.85571	0.18879
598.89131	0.18446
597.92691	0.18135
596.96251	0.17926
595.99811	0.17690
595.03371	0.17324
594.06932	0.16854
593.10492	0.16483
592.14052	0.16270
591.17612	0.15983
590.21172	0.15520
589.24732	0.15054
588.28293	0.14722
587.31853	0.14453
586.35413	0.14117
585.38973	0.13713
584.42533	0.13331
583.46094	0.12977
582.49654	0.12582
581.53214	0.12181
580.56774	0.11893
579.60334	0.11679
578.63894	0.11437
577.67455	0.11177
576.71015	0.10841
575.74575	0.10357
574.78135	0.09908
573.81695	0.09628
572.85255	0.09381
571.88816	0.09019
570.92376	0.08549
569.95936	0.08129
568.99496	0.07881
568.03056	0.07692
567.06617	0.07368
566.10177	0.06951
565.13737	0.06626
564.17297	0.06367
563.20857	0.06057
562.24417	0.05742
561.27978	0.05455
560.31538	0.05152
559.35098	0.04913
558.38658	0.04812
557.42218	0.04658
556.45778	0.04329
555.49339	0.04048
554.52899	0.03905
553.56459	0.03775
552.60019	0.03696
551.63579	0.03734
550.67140	0.03764
549.70700	0.03657
548.74260	0.03386
547.77820	0.02966
546.81380	0.02507
545.84940	0.02102
544.88501	0.01730
543.92061	0.01414
542.95621	0.01222
541.99181	0.01110
541.02741	0.01001
540.06301	0.00933
539.09862	0.00857
538.13422	0.00675
537.16982	0.00532
536.20542	0.00491
535.24102	0.00601
534.27663	0.00774
533.31223	0.01016
532.34783	0.01379
531.38343	0.02005
530.41903	0.02991
529.45463	0.04369
528.49024	0.06263
527.52584	0.08678
526.56144	0.11751
525.59704	0.15706
524.63264	0.20327
523.66824	0.25505
522.70385	0.31465
521.73945	0.38562
520.77505	0.47659
519.81065	0.59969
518.84625	0.75334
517.88185	0.92479
516.91746	1.10257
515.95306	1.26056
514.98866	1.38091
514.02426	1.47590
513.05986	1.56260
512.09547	1.64679
511.13107	1.72838
510.16667	1.81262
509.20227	1.89778
508.23787	1.96554
507.27347	2.00000
506.30908	1.99786
505.34468	1.96676
504.38028	1.92008
503.41588	1.86852
502.45148	1.81128
501.48708	1.74250
500.52269	1.65982
499.55829	1.56369
498.59389	1.46067
497.62949	1.35875
496.66509	1.26253
495.70070	1.17454
494.73630	1.09674
493.77190	1.03129
492.80750	0.97754
491.84310	0.93104
490.87870	0.88831
489.91431	0.84965
488.94991	0.81521
487.98551	0.78561
487.02111	0.76275
486.05671	0.74829
485.09231	0.74102
484.12792	0.73854
483.16352	0.74075
482.19912	0.74464
481.23472	0.74730
480.27032	0.75054
479.30593	0.75611
478.34153	0.76305
477.37713	0.76911
476.41273	0.77284
475.44833	0.77368
474.48393	0.77151
473.51954	0.76532
472.55514	0.75204
471.59074	0.72974
470.62634	0.70041
469.66194	0.66668
468.69754	0.62934
467.73315	0.58944
466.76875	0.55003
465.80435	0.51227
464.83995	0.47557
463.87555	0.44058
462.91116	0.40929
461.94676	0.38235
460.98236	0.35742
460.01796	0.33427
459.05356	0.31469
458.08916	0.29855
457.12477	0.28588
456.16037	0.27663
455.19597	0.27031
454.23157	0.26794
453.26717	0.27060
452.30277	0.27882
451.33838	0.29112
450.37398	0.30537
449.40958	0.32168
448.44518	0.33898
447.48078	0.35506
446.51639	0.36846
445.55199	0.37779
444.58759	0.38408
443.62319	0.38777
442.65879	0.38745
441.69439	0.38456
440.73000	0.38133
439.76560	0.37827
438.80120	0.37696
437.83680	0.38238
436.87240	0.39962
435.90800	0.42676
434.94361	0.45440
433.97921	0.47611
433.01481	0.49051
432.05041	0.49703
431.08601	0.49569
430.12162	0.48858
429.15722	0.47676
428.19282	0.45691
427.22842	0.42664
426.26402	0.38836
425.29962	0.34701
424.33523	0.30878
423.37083	0.27597
422.40643	0.24940
421.44203	0.22807
420.47763	0.20696
419.51323	0.18418
418.54884	0.16421
417.58444	0.14942
416.62004	0.13713
415.65564	0.12562
414.69124	0.11404
413.72685	0.10391
412.76245	0.09611
411.79805	0.08686
410.83365	0.07440
409.86925	0.06519
408.90485	0.06283
407.94046	0.06065
406.97606	0.05583
406.01166	0.05116
405.04726	0.04435
404.08286	0.03378
403.11846	0.02351
402.15407	0.01578
401.18967	0.00919
400.22527	0.00532
399.26087	0.00532
