3998.39510	0.00981
3997.43071	0.00944
3996.46631	0.00917
3995.50191	0.00897
3994.53751	0.00883
3993.57311	0.00859
3992.60871	0.00824
3991.64432	0.00799
3990.67992	0.00795
3989.71552	0.00788
3988.75112	0.00772
3987.78672	0.00768
3986.82232	0.00764
3985.85793	0.00744
3984.89353	0.00722
3983.92913	0.00712
3982.96473	0.00718
3982.00033	0.00732
3981.03594	0.00735
3980.07154	0.00727
3979.10714	0.00713
3978.14274	0.00705
3977.17834	0.00717
3976.21394	0.00743
3975.24955	0.00763
3974.28515	0.00783
3973.32075	0.00811
3972.35635	0.00831
3971.39195	0.00836
3970.42755	0.00842
3969.46316	0.00842
3968.49876	0.00809
3967.53436	0.00754
3966.56996	0.00725
3965.60556	0.00734
3964.64117	0.00737
3963.67677	0.00714
3962.71237	0.00680
3961.74797	0.00650
3960.78357	0.00637
3959.81917	0.00635
3958.85478	0.00622
3957.89038	0.00607
3956.92598	0.00598
3955.96158	0.00585
3954.99718	0.00573
3954.03278	0.00575
3953.06839	0.00575
3952.10399	0.00584
3951.13959	0.00638
3950.17519	0.00691
3949.21079	0.00688
3948.24640	0.00655
3947.28200	0.00611
3946.31760	0.00564
3945.35320	0.00559
3944.38880	0.00618
3943.42440	0.00689
3942.46001	0.00658
3941.49561	0.00549
3940.53121	0.00498
3939.56681	0.00511
3938.60241	0.00530
3937.63801	0.00535
3936.67362	0.00532
3935.70922	0.00548
3934.74482	0.00620
3933.78042	0.00743
3932.81602	0.00821
3931.85163	0.00760
3930.88723	0.00649
3929.92283	0.00610
3928.95843	0.00600
3927.99403	0.00582
3927.02963	0.00613
3926.06524	0.00705
3925.10084	0.00743
3924.13644	0.00660
3923.17204	0.00567
3922.20764	0.00570
3921.24324	0.00670
3920.27885	0.00738
3919.31445	0.00710
3918.35005	0.00743
3917.38565	0.00818
3916.42125	0.00748
3915.45686	0.00610
3914.49246	0.00560
3913.52806	0.00565
3912.56366	0.00559
3911.59926	0.00552
3910.63486	0.00563
3909.67047	0.00582
3908.70607	0.00607
3907.74167	0.00679
3906.77727	0.00817
3905.81287	0.00995
3904.84847	0.01125
3903.88408	0.01116
3902.91968	0.01092
3901.95528	0.01086
3900.99088	0.01040
3900.02648	0.01054
3899.06209	0.00990
3898.09769	0.00769
3897.13329	0.00630
3896.16889	0.00623
3895.20449	0.00657
3894.24009	0.00696
3893.27570	0.00806
3892.31130	0.01001
3891.34690	0.01006
3890.38250	0.00734
3889.41810	0.00559
3888.45370	0.00613
3887.48931	0.00836
3886.52491	0.01103
3885.56051	0.01060
3884.59611	0.00775
3883.63171	0.00653
3882.66731	0.00723
3881.70292	0.00929
3880.73852	0.01073
3879.77412	0.00884
3878.80972	0.00614
3877.84532	0.00549
3876.88093	0.00610
3875.91653	0.00746
3874.95213	0.00912
3873.98773	0.00885
3873.02333	0.00720
3872.05893	0.00777
3871.09454	0.01118
3870.13014	0.01318
3869.16574	0.00997
3868.20134	0.00629
3867.23694	0.00620
3866.27254	0.00873
3865.30815	0.01033
3864.34375	0.00870
3863.37935	0.00714
3862.41495	0.00731
3861.45055	0.00666
3860.48616	0.00508
3859.52176	0.00478
3858.55736	0.00592
3857.59296	0.00698
3856.62856	0.00782
3855.66416	0.01137
3854.69977	0.01736
3853.73537	0.01780
3852.77097	0.01284
3851.80657	0.00871
3850.84217	0.00603
3849.87777	0.00513
3848.91338	0.00489
3847.94898	0.00445
3846.98458	0.00437
3846.02018	0.00498
3845.05578	0.00641
3844.09139	0.00752
3843.12699	0.00718
3842.16259	0.00734
3841.19819	0.00874
3840.23379	0.00960
3839.26939	0.01071
3838.30500	0.01154
3837.34060	0.00892
3836.37620	0.00668
3835.41180	0.00709
3834.44740	0.00660
3833.48300	0.00587
3832.51861	0.00700
3831.55421	0.00712
3830.58981	0.00505
3829.62541	0.00401
3828.66101	0.00487
3827.69662	0.00613
3826.73222	0.00618
3825.76782	0.00509
3824.80342	0.00457
3823.83902	0.00563
3822.87462	0.00868
3821.91023	0.01215
3820.94583	0.01123
3819.98143	0.00687
3819.01703	0.00462
3818.05263	0.00577
3817.08823	0.00900
3816.12384	0.00971
3815.15944	0.00587
3814.19504	0.00330
3813.23064	0.00344
3812.26624	0.00390
3811.30185	0.00385
3810.33745	0.00388
3809.37305	0.00480
3808.40865	0.00743
3807.44425	0.00987
3806.47985	0.00821
3805.51546	0.00528
3804.55106	0.00524
3803.58666	0.00767
3802.62226	0.01111
3801.65786	0.01213
3800.69346	0.00848
3799.72907	0.00537
3798.76467	0.00542
3797.80027	0.00706
3796.83587	0.00781
3795.87147	0.00625
3794.90708	0.00437
3793.94268	0.00395
3792.97828	0.00421
3792.01388	0.00438
3791.04948	0.00459
3790.08508	0.00485
3789.12069	0.00503
3788.15629	0.00509
3787.19189	0.00531
3786.22749	0.00597
3785.26309	0.00661
3784.29869	0.00636
3783.33430	0.00561
3782.36990	0.00550
3781.40550	0.00654
3780.44110	0.00811
3779.47670	0.00821
3778.51230	0.00654
3777.54791	0.00549
3776.58351	0.00559
3775.61911	0.00583
3774.65471	0.00593
3773.69031	0.00612
3772.72592	0.00669
3771.76152	0.00830
3770.79712	0.01077
3769.83272	0.01146
3768.86832	0.00967
3767.90392	0.00896
3766.93953	0.01034
3765.97513	0.01131
3765.01073	0.01029
3764.04633	0.00915
3763.08193	0.00909
3762.11753	0.00977
3761.15314	0.01142
3760.18874	0.01302
3759.22434	0.01230
3758.25994	0.01103
3757.29554	0.01122
3756.33115	0.01097
3755.36675	0.00992
3754.40235	0.01079
3753.43795	0.01458
3752.47355	0.01731
3751.50915	0.01587
3750.54476	0.01553
3749.58036	0.01572
3748.61596	0.01204
3747.65156	0.00939
3746.68716	0.01156
3745.72276	0.01786
3744.75837	0.02138
3743.79397	0.01439
3742.82957	0.00881
3741.86517	0.00866
3740.90077	0.00928
3739.93638	0.00914
3738.97198	0.00990
3738.00758	0.01194
3737.04318	0.01436
3736.07878	0.01582
3735.11438	0.01472
3734.14999	0.01240
3733.18559	0.01196
3732.22119	0.01180
3731.25679	0.00933
3730.29239	0.00734
3729.32799	0.00743
3728.36360	0.00871
3727.39920	0.01033
3726.43480	0.01082
3725.47040	0.00985
3724.50600	0.00916
3723.54161	0.00987
3722.57721	0.01046
3721.61281	0.00916
3720.64841	0.00800
3719.68401	0.00835
3718.71961	0.00840
3717.75522	0.00762
3716.79082	0.00737
3715.82642	0.00783
3714.86202	0.00860
3713.89762	0.01066
3712.93322	0.01392
3711.96883	0.01441
3711.00443	0.01250
3710.04003	0.01231
3709.07563	0.01206
3708.11123	0.01073
3707.14684	0.01061
3706.18244	0.01156
3705.21804	0.01237
3704.25364	0.01325
3703.28924	0.01493
3702.32484	0.01644
3701.36045	0.01553
3700.39605	0.01337
3699.43165	0.01228
3698.46725	0.01193
3697.50285	0.01159
3696.53845	0.01141
3695.57406	0.01147
3694.60966	0.01171
3693.64526	0.01242
3692.68086	0.01452
3691.71646	0.01728
3690.75207	0.01852
3689.78767	0.01959
3688.82327	0.02090
3687.85887	0.01891
3686.89447	0.01622
3685.93007	0.01615
3684.96568	0.01699
3684.00128	0.01710
3683.03688	0.01678
3682.07248	0.01673
3681.10808	0.01728
3680.14368	0.01804
3679.17929	0.01814
3678.21489	0.01853
3677.25049	0.02147
3676.28609	0.02565
3675.32169	0.02460
3674.35730	0.01869
3673.39290	0.01565
3672.42850	0.01726
3671.46410	0.02093
3670.49970	0.02201
3669.53530	0.01983
3668.57091	0.01740
3667.60651	0.01564
3666.64211	0.01503
3665.67771	0.01522
3664.71331	0.01541
3663.74891	0.01561
3662.78452	0.01583
3661.82012	0.01596
3660.85572	0.01617
3659.89132	0.01657
3658.92692	0.01723
3657.96252	0.01890
3656.99813	0.02113
3656.03373	0.02076
3655.06933	0.01847
3654.10493	0.01801
3653.14053	0.01995
3652.17614	0.02364
3651.21174	0.02770
3650.24734	0.02972
3649.28294	0.02949
3648.31854	0.02907
3647.35414	0.02834
3646.38975	0.02636
3645.42535	0.02487
3644.46095	0.02512
3643.49655	0.02630
3642.53215	0.02746
3641.56775	0.02820
3640.60336	0.02878
3639.63896	0.02975
3638.67456	0.03101
3637.71016	0.03205
3636.74576	0.03309
3635.78137	0.03495
3634.81697	0.03767
3633.85257	0.03991
3632.88817	0.04120
3631.92377	0.04361
3630.95937	0.04874
3629.99498	0.05516
3629.03058	0.05730
3628.06618	0.05339
3627.10178	0.05009
3626.13738	0.04947
3625.17298	0.04958
3624.20859	0.04957
3623.24419	0.04968
3622.27979	0.05032
3621.31539	0.05209
3620.35099	0.05446
3619.38660	0.05553
3618.42220	0.05519
3617.45780	0.05465
3616.49340	0.05474
3615.52900	0.05595
3614.56460	0.05767
3613.60021	0.05923
3612.63581	0.05973
3611.67141	0.05907
3610.70701	0.05991
3609.74261	0.06221
3608.77821	0.06295
3607.81382	0.06257
3606.84942	0.06233
3605.88502	0.06195
3604.92062	0.06224
3603.95622	0.06345
3602.99183	0.06492
3602.02743	0.06651
3601.06303	0.06780
3600.09863	0.06854
3599.13423	0.06942
3598.16983	0.07073
3597.20544	0.07248
3596.24104	0.07471
3595.27664	0.07647
3594.31224	0.07744
3593.34784	0.07815
3592.38344	0.07857
3591.41905	0.07929
3590.45465	0.08123
3589.49025	0.08407
3588.52585	0.08623
3587.56145	0.08696
3586.59706	0.08646
3585.63266	0.08551
3584.66826	0.08577
3583.70386	0.08703
3582.73946	0.08811
3581.77506	0.08928
3580.81067	0.09089
3579.84627	0.09241
3578.88187	0.09359
3577.91747	0.09474
3576.95307	0.09600
3575.98867	0.09728
3575.02428	0.09853
3574.05988	0.09959
3573.09548	0.10046
3572.13108	0.10147
3571.16668	0.10279
3570.20229	0.10477
3569.23789	0.10781
3568.27349	0.11076
3567.30909	0.11199
3566.34469	0.11177
3565.38029	0.11105
3564.41590	0.11092
3563.45150	0.11160
3562.48710	0.11246
3561.52270	0.11360
3560.55830	0.11499
3559.59390	0.11600
3558.62951	0.11676
3557.66511	0.11784
3556.70071	0.11906
3555.73631	0.12016
3554.77191	0.12148
3553.80752	0.12311
3552.84312	0.12463
3551.87872	0.12552
3550.91432	0.12618
3549.94992	0.12738
3548.98552	0.12916
3548.02113	0.13106
3547.05673	0.13241
3546.09233	0.13320
3545.12793	0.13404
3544.16353	0.13496
3543.19913	0.13577
3542.23474	0.13671
3541.27034	0.13801
3540.30594	0.13946
3539.34154	0.14089
3538.37714	0.14238
3537.41274	0.14390
3536.44835	0.14524
3535.48395	0.14638
3534.51955	0.14765
3533.55515	0.14918
3532.59075	0.15070
3531.62636	0.15211
3530.66196	0.15364
3529.69756	0.15534
3528.73316	0.15700
3527.76876	0.15838
3526.80436	0.15949
3525.83997	0.16057
3524.87557	0.16179
3523.91117	0.16311
3522.94677	0.16439
3521.98237	0.16559
3521.01797	0.16696
3520.05358	0.16859
3519.08918	0.17014
3518.12478	0.17146
3517.16038	0.17274
3516.19598	0.17403
3515.23159	0.17526
3514.26719	0.17655
3513.30279	0.17818
3512.33839	0.18004
3511.37399	0.18189
3510.40959	0.18367
3509.44520	0.18510
3508.48080	0.18622
3507.51640	0.18759
3506.55200	0.18932
3505.58760	0.19106
3504.62320	0.19271
3503.65881	0.19417
3502.69441	0.19539
3501.73001	0.19671
3500.76561	0.19820
3499.80121	0.19963
3498.83682	0.20103
3497.87242	0.20261
3496.90802	0.20436
3495.94362	0.20608
3494.97922	0.20762
3494.01482	0.20911
3493.05043	0.21077
3492.08603	0.21262
3491.12163	0.21444
3490.15723	0.21614
3489.19283	0.21796
3488.22843	0.21977
3487.26404	0.22138
3486.29964	0.22307
3485.33524	0.22500
3484.37084	0.22701
3483.40644	0.22906
3482.44205	0.23097
3481.47765	0.23243
3480.51325	0.23362
3479.54885	0.23510
3478.58445	0.23712
3477.62005	0.23931
3476.65566	0.24129
3475.69126	0.24314
3474.72686	0.24502
3473.76246	0.24688
3472.79806	0.24879
3471.83366	0.25073
3470.86927	0.25245
3469.90487	0.25400
3468.94047	0.25572
3467.97607	0.25766
3467.01167	0.25976
3466.04728	0.26205
3465.08288	0.26441
3464.11848	0.26678
3463.15408	0.26903
3462.18968	0.27095
3461.22528	0.27263
3460.26089	0.27444
3459.29649	0.27663
3458.33209	0.27902
3457.36769	0.28119
3456.40329	0.28317
3455.43889	0.28526
3454.47450	0.28749
3453.51010	0.28961
3452.54570	0.29153
3451.58130	0.29344
3450.61690	0.29557
3449.65251	0.29794
3448.68811	0.30046
3447.72371	0.30278
3446.75931	0.30458
3445.79491	0.30614
3444.83051	0.30794
3443.86612	0.31003
3442.90172	0.31216
3441.93732	0.31413
3440.97292	0.31604
3440.00852	0.31799
3439.04412	0.31968
3438.07973	0.32105
3437.11533	0.32257
3436.15093	0.32434
3435.18653	0.32614
3434.22213	0.32813
3433.25774	0.33032
3432.29334	0.33221
3431.32894	0.33366
3430.36454	0.33514
3429.40014	0.33698
3428.43574	0.33893
3427.47135	0.34072
3426.50695	0.34243
3425.54255	0.34414
3424.57815	0.34589
3423.61375	0.34764
3422.64935	0.34940
3421.68496	0.35110
3420.72056	0.35255
3419.75616	0.35381
3418.79176	0.35513
3417.82736	0.35669
3416.86296	0.35834
3415.89857	0.35990
3414.93417	0.36119
3413.96977	0.36218
3413.00537	0.36322
3412.04097	0.36466
3411.07658	0.36628
3410.11218	0.36766
3409.14778	0.36884
3408.18338	0.37019
3407.21898	0.37173
3406.25458	0.37328
3405.29019	0.37473
3404.32579	0.37599
3403.36139	0.37680
3402.39699	0.37728
3401.43259	0.37797
3400.46819	0.37923
3399.50380	0.38102
3398.53940	0.38306
3397.57500	0.38490
3396.61060	0.38625
3395.64620	0.38737
3394.68181	0.38852
3393.71741	0.38945
3392.75301	0.38996
3391.78861	0.39062
3390.82421	0.39205
3389.85981	0.39386
3388.89542	0.39548
3387.93102	0.39681
3386.96662	0.39805
3386.00222	0.39922
3385.03782	0.40016
3384.07342	0.40095
3383.10903	0.40176
3382.14463	0.40248
3381.18023	0.40310
3380.21583	0.40381
3379.25143	0.40464
3378.28704	0.40545
3377.32264	0.40620
3376.35824	0.40696
3375.39384	0.40777
3374.42944	0.40857
3373.46504	0.40923
3372.50065	0.40958
3371.53625	0.40958
3370.57185	0.40949
3369.60745	0.40979
3368.64305	0.41055
3367.67865	0.41140
3366.71426	0.41221
3365.74986	0.41310
3364.78546	0.41399
3363.82106	0.41474
3362.85666	0.41536
3361.89227	0.41589
3360.92787	0.41646
3359.96347	0.41731
3358.99907	0.41826
3358.03467	0.41905
3357.07027	0.41980
3356.10588	0.42049
3355.14148	0.42104
3354.17708	0.42171
3353.21268	0.42241
3352.24828	0.42252
3351.28388	0.42231
3350.31949	0.42273
3349.35509	0.42396
3348.39069	0.42546
3347.42629	0.42676
3346.46189	0.42763
3345.49750	0.42803
3344.53310	0.42833
3343.56870	0.42903
3342.60430	0.43015
3341.63990	0.43122
3340.67550	0.43185
3339.71111	0.43218
3338.74671	0.43276
3337.78231	0.43386
3336.81791	0.43508
3335.85351	0.43607
3334.88911	0.43693
3333.92472	0.43786
3332.96032	0.43891
3331.99592	0.44000
3331.03152	0.44100
3330.06712	0.44191
3329.10273	0.44275
3328.13833	0.44354
3327.17393	0.44419
3326.20953	0.44479
3325.24513	0.44565
3324.28073	0.44675
3323.31634	0.44786
3322.35194	0.44889
3321.38754	0.44983
3320.42314	0.45070
3319.45874	0.45162
3318.49434	0.45258
3317.52995	0.45349
3316.56555	0.45436
3315.60115	0.45536
3314.63675	0.45645
3313.67235	0.45744
3312.70795	0.45827
3311.74356	0.45897
3310.77916	0.45963
3309.81476	0.46039
3308.85036	0.46111
3307.88596	0.46162
3306.92157	0.46208
3305.95717	0.46287
3304.99277	0.46404
3304.02837	0.46550
3303.06397	0.46700
3302.09957	0.46825
3301.13518	0.46925
3300.17078	0.47022
3299.20638	0.47127
3298.24198	0.47222
3297.27758	0.47282
3296.31318	0.47324
3295.34879	0.47402
3294.38439	0.47521
3293.41999	0.47613
3292.45559	0.47655
3291.49119	0.47720
3290.52680	0.47844
3289.56240	0.47982
3288.59800	0.48093
3287.63360	0.48173
3286.66920	0.48240
3285.70480	0.48319
3284.74041	0.48406
3283.77601	0.48484
3282.81161	0.48554
3281.84721	0.48623
3280.88281	0.48694
3279.91841	0.48756
3278.95402	0.48810
3277.98962	0.48864
3277.02522	0.48907
3276.06082	0.48940
3275.09642	0.48995
3274.13203	0.49073
3273.16763	0.49115
3272.20323	0.49107
3271.23883	0.49118
3270.27443	0.49186
3269.31003	0.49281
3268.34564	0.49364
3267.38124	0.49437
3266.41684	0.49507
3265.45244	0.49557
3264.48804	0.49581
3263.52364	0.49602
3262.55925	0.49650
3261.59485	0.49706
3260.63045	0.49745
3259.66605	0.49764
3258.70165	0.49763
3257.73726	0.49747
3256.77286	0.49736
3255.80846	0.49751
3254.84406	0.49790
3253.87966	0.49824
3252.91526	0.49838
3251.95087	0.49840
3250.98647	0.49837
3250.02207	0.49835
3249.05767	0.49812
3248.09327	0.49760
3247.12887	0.49732
3246.16448	0.49753
3245.20008	0.49773
3244.23568	0.49760
3243.27128	0.49728
3242.30688	0.49695
3241.34249	0.49665
3240.37809	0.49644
3239.41369	0.49627
3238.44929	0.49608
3237.48489	0.49573
3236.52049	0.49506
3235.55610	0.49410
3234.59170	0.49305
3233.62730	0.49232
3232.66290	0.49215
3231.69850	0.49229
3230.73410	0.49222
3229.76971	0.49179
3228.80531	0.49131
3227.84091	0.49094
3226.87651	0.49032
3225.91211	0.48943
3224.94772	0.48869
3223.98332	0.48825
3223.01892	0.48778
3222.05452	0.48703
3221.09012	0.48622
3220.12572	0.48555
3219.16133	0.48490
3218.19693	0.48418
3217.23253	0.48347
3216.26813	0.48274
3215.30373	0.48195
3214.33933	0.48112
3213.37494	0.48023
3212.41054	0.47929
3211.44614	0.47840
3210.48174	0.47754
3209.51734	0.47663
3208.55295	0.47566
3207.58855	0.47465
3206.62415	0.47368
3205.65975	0.47285
3204.69535	0.47203
3203.73095	0.47098
3202.76656	0.46987
3201.80216	0.46896
3200.83776	0.46802
3199.87336	0.46690
3198.90896	0.46588
3197.94456	0.46495
3196.98017	0.46388
3196.01577	0.46257
3195.05137	0.46115
3194.08697	0.45990
3193.12257	0.45888
3192.15817	0.45787
3191.19378	0.45675
3190.22938	0.45553
3189.26498	0.45431
3188.30058	0.45314
3187.33618	0.45189
3186.37179	0.45054
3185.40739	0.44913
3184.44299	0.44768
3183.47859	0.44639
3182.51419	0.44525
3181.54979	0.44399
3180.58540	0.44270
3179.62100	0.44168
3178.65660	0.44078
3177.69220	0.43966
3176.72780	0.43841
3175.76340	0.43731
3174.79901	0.43623
3173.83461	0.43494
3172.87021	0.43364
3171.90581	0.43241
3170.94141	0.43111
3169.97702	0.42977
3169.01262	0.42851
3168.04822	0.42730
3167.08382	0.42607
3166.11942	0.42482
3165.15502	0.42361
3164.19063	0.42237
3163.22623	0.42106
3162.26183	0.41979
3161.29743	0.41869
3160.33303	0.41764
3159.36863	0.41645
3158.40424	0.41517
3157.43984	0.41392
3156.47544	0.41264
3155.51104	0.41126
3154.54664	0.40962
3153.58225	0.40763
3152.61785	0.40571
3151.65345	0.40429
3150.68905	0.40321
3149.72465	0.40202
3148.76025	0.40065
3147.79586	0.39924
3146.83146	0.39779
3145.86706	0.39638
3144.90266	0.39507
3143.93826	0.39378
3142.97386	0.39247
3142.00947	0.39134
3141.04507	0.39066
3140.08067	0.39090
3139.11627	0.39268
3138.15187	0.39612
3137.18748	0.40052
3136.22308	0.40462
3135.25868	0.40724
3134.29428	0.40785
3133.32988	0.40638
3132.36548	0.40298
3131.40109	0.39835
3130.43669	0.39337
3129.47229	0.38877
3128.50789	0.38486
3127.54349	0.38148
3126.57909	0.37842
3125.61470	0.37566
3124.65030	0.37316
3123.68590	0.37077
3122.72150	0.36824
3121.75710	0.36539
3120.79271	0.36252
3119.82831	0.36006
3118.86391	0.35777
3117.89951	0.35527
3116.93511	0.35284
3115.97071	0.35072
3115.00632	0.34879
3114.04192	0.34699
3113.07752	0.34520
3112.11312	0.34327
3111.14872	0.34116
3110.18432	0.33878
3109.21993	0.33636
3108.25553	0.33437
3107.29113	0.33281
3106.32673	0.33128
3105.36233	0.32960
3104.39794	0.32779
3103.43354	0.32595
3102.46914	0.32423
3101.50474	0.32256
3100.54034	0.32092
3099.57594	0.31953
3098.61155	0.31860
3097.64715	0.31811
3096.68275	0.31789
3095.71835	0.31793
3094.75395	0.31868
3093.78955	0.32063
3092.82516	0.32400
3091.86076	0.32897
3090.89636	0.33586
3089.93196	0.34446
3088.96756	0.35320
3088.00317	0.35982
3087.03877	0.36276
3086.07437	0.36173
3085.10997	0.35761
3084.14557	0.35194
3083.18117	0.34579
3082.21678	0.33939
3081.25238	0.33315
3080.28798	0.32808
3079.32358	0.32495
3078.35918	0.32449
3077.39478	0.32771
3076.43039	0.33538
3075.46599	0.34799
3074.50159	0.36633
3073.53719	0.39117
3072.57279	0.42256
3071.60839	0.45946
3070.64400	0.49953
3069.67960	0.53882
3068.71520	0.57191
3067.75080	0.59347
3066.78640	0.60028
3065.82201	0.59302
3064.85761	0.57581
3063.89321	0.55416
3062.92881	0.53314
3061.96441	0.51586
3061.00001	0.50345
3060.03562	0.49622
3059.07122	0.49399
3058.10682	0.49612
3057.14242	0.50195
3056.17802	0.51057
3055.21362	0.52044
3054.24923	0.52992
3053.28483	0.53751
3052.32043	0.54180
3051.35603	0.54259
3050.39163	0.54088
3049.42724	0.53773
3048.46284	0.53375
3047.49844	0.52902
3046.53404	0.52334
3045.56964	0.51674
3044.60524	0.50943
3043.64085	0.50116
3042.67645	0.49162
3041.71205	0.48038
3040.74765	0.46689
3039.78325	0.45147
3038.81885	0.43544
3037.85446	0.42008
3036.89006	0.40628
3035.92566	0.39465
3034.96126	0.38580
3033.99686	0.38011
3033.03247	0.37767
3032.06807	0.37841
3031.10367	0.38226
3030.13927	0.38930
3029.17487	0.39930
3028.21047	0.41107
3027.24608	0.42302
3026.28168	0.43397
3025.31728	0.44323
3024.35288	0.45023
3023.38848	0.45374
3022.42408	0.45260
3021.45969	0.44735
3020.49529	0.44003
3019.53089	0.43290
3018.56649	0.42768
3017.60209	0.42574
3016.63770	0.42806
3015.67330	0.43472
3014.70890	0.44490
3013.74450	0.45657
3012.78010	0.46615
3011.81570	0.47060
3010.85131	0.46970
3009.88691	0.46432
3008.92251	0.45504
3007.95811	0.44321
3006.99371	0.43087
3006.02931	0.41977
3005.06492	0.41148
3004.10052	0.40768
3003.13612	0.40992
3002.17172	0.41848
3001.20732	0.43134
3000.24293	0.44406
2999.27853	0.45156
2998.31413	0.45151
2997.34973	0.44534
2996.38533	0.43535
2995.42093	0.42290
2994.45654	0.40909
2993.49214	0.39542
2992.52774	0.38345
2991.56334	0.37388
2990.59894	0.36636
2989.63454	0.36026
2988.67015	0.35530
2987.70575	0.35134
2986.74135	0.34819
2985.77695	0.34578
2984.81255	0.34424
2983.84816	0.34380
2982.88376	0.34470
2981.91936	0.34722
2980.95496	0.35148
2979.99056	0.35705
2979.02616	0.36313
2978.06177	0.36871
2977.09737	0.37268
2976.13297	0.37429
2975.16857	0.37362
2974.20417	0.37152
2973.23977	0.36918
2972.27538	0.36772
2971.31098	0.36784
2970.34658	0.36948
2969.38218	0.37167
2968.41778	0.37271
2967.45339	0.37111
2966.48899	0.36658
2965.52459	0.36005
2964.56019	0.35278
2963.59579	0.34565
2962.63139	0.33906
2961.66700	0.33307
2960.70260	0.32759
2959.73820	0.32248
2958.77380	0.31765
2957.80940	0.31304
2956.84500	0.30862
2955.88061	0.30434
2954.91621	0.30013
2953.95181	0.29597
2952.98741	0.29212
2952.02301	0.28889
2951.05861	0.28609
2950.09422	0.28339
2949.12982	0.28071
2948.16542	0.27803
2947.20102	0.27554
2946.23662	0.27342
2945.27223	0.27150
2944.30783	0.26978
2943.34343	0.26848
2942.37903	0.26754
2941.41463	0.26674
2940.45023	0.26612
2939.48584	0.26588
2938.52144	0.26616
2937.55704	0.26707
2936.59264	0.26862
2935.62824	0.27051
2934.66384	0.27223
2933.69945	0.27326
2932.73505	0.27317
2931.77065	0.27195
2930.80625	0.27025
2929.84185	0.26902
2928.87746	0.26870
2927.91306	0.26919
2926.94866	0.27042
2925.98426	0.27250
2925.01986	0.27542
2924.05546	0.27904
2923.09107	0.28291
2922.12667	0.28598
2921.16227	0.28706
2920.19787	0.28567
2919.23347	0.28253
2918.26907	0.27890
2917.30468	0.27567
2916.34028	0.27322
2915.37588	0.27155
2914.41148	0.27059
2913.44708	0.27053
2912.48269	0.27138
2911.51829	0.27247
2910.55389	0.27347
2909.58949	0.27461
2908.62509	0.27594
2907.66069	0.27724
2906.69630	0.27832
2905.73190	0.27913
2904.76750	0.27953
2903.80310	0.27919
2902.83870	0.27784
2901.87430	0.27538
2900.90991	0.27209
2899.94551	0.26859
2898.98111	0.26535
2898.01671	0.26263
2897.05231	0.26056
2896.08792	0.25935
2895.12352	0.25911
2894.15912	0.25957
2893.19472	0.26048
2892.23032	0.26155
2891.26592	0.26219
2890.30153	0.26195
2889.33713	0.26080
2888.37273	0.25894
2887.40833	0.25669
2886.44393	0.25445
2885.47953	0.25259
2884.51514	0.25124
2883.55074	0.25049
2882.58634	0.25037
2881.62194	0.25088
2880.65754	0.25211
2879.69315	0.25406
2878.72875	0.25654
2877.76435	0.25920
2876.79995	0.26158
2875.83555	0.26307
2874.87115	0.26320
2873.90676	0.26206
2872.94236	0.26008
2871.97796	0.25750
2871.01356	0.25455
2870.04916	0.25161
2869.08476	0.24896
2868.12037	0.24664
2867.15597	0.24459
2866.19157	0.24272
2865.22717	0.24095
2864.26277	0.23933
2863.29838	0.23775
2862.33398	0.23602
2861.36958	0.23411
2860.40518	0.23201
2859.44078	0.22963
2858.47638	0.22701
2857.51199	0.22444
2856.54759	0.22223
2855.58319	0.22050
2854.61879	0.21920
2853.65439	0.21824
2852.68999	0.21757
2851.72560	0.21706
2850.76120	0.21632
2849.79680	0.21514
2848.83240	0.21366
2847.86800	0.21205
2846.90360	0.21047
2845.93921	0.20907
2844.97481	0.20795
2844.01041	0.20704
2843.04601	0.20627
2842.08161	0.20557
2841.11722	0.20491
2840.15282	0.20422
2839.18842	0.20351
2838.22402	0.20276
2837.25962	0.20185
2836.29522	0.20081
2835.33083	0.19975
2834.36643	0.19865
2833.40203	0.19760
2832.43763	0.19682
2831.47323	0.19647
2830.50883	0.19643
2829.54444	0.19644
2828.58004	0.19627
2827.61564	0.19581
2826.65124	0.19514
2825.68684	0.19449
2824.72245	0.19403
2823.75805	0.19375
2822.79365	0.19355
2821.82925	0.19332
2820.86485	0.19298
2819.90045	0.19258
2818.93606	0.19213
2817.97166	0.19162
2817.00726	0.19108
2816.04286	0.19055
2815.07846	0.19006
2814.11406	0.18957
2813.14967	0.18906
2812.18527	0.18855
2811.22087	0.18796
2810.25647	0.18721
2809.29207	0.18636
2808.32768	0.18542
2807.36328	0.18444
2806.39888	0.18346
2805.43448	0.18247
2804.47008	0.18146
2803.50568	0.18053
2802.54129	0.17970
2801.57689	0.17894
2800.61249	0.17816
2799.64809	0.17733
2798.68369	0.17661
2797.71929	0.17609
2796.75490	0.17561
2795.79050	0.17507
2794.82610	0.17451
2793.86170	0.17395
2792.89730	0.17338
2791.93291	0.17279
2790.96851	0.17222
2790.00411	0.17168
2789.03971	0.17125
2788.07531	0.17088
2787.11091	0.17044
2786.14652	0.16989
2785.18212	0.16932
2784.21772	0.16882
2783.25332	0.16841
2782.28892	0.16797
2781.32452	0.16746
2780.36013	0.16702
2779.39573	0.16668
2778.43133	0.16637
2777.46693	0.16609
2776.50253	0.16580
2775.53814	0.16553
2774.57374	0.16537
2773.60934	0.16524
2772.64494	0.16512
2771.68054	0.16505
2770.71614	0.16503
2769.75175	0.16509
2768.78735	0.16527
2767.82295	0.16547
2766.85855	0.16563
2765.89415	0.16581
2764.92975	0.16591
2763.96536	0.16575
2763.00096	0.16538
2762.03656	0.16487
2761.07216	0.16426
2760.10776	0.16356
2759.14337	0.16290
2758.17897	0.16232
2757.21457	0.16177
2756.25017	0.16124
2755.28577	0.16079
2754.32137	0.16035
2753.35698	0.15990
2752.39258	0.15952
2751.42818	0.15919
2750.46378	0.15888
2749.49938	0.15861
2748.53498	0.15834
2747.57059	0.15811
2746.60619	0.15795
2745.64179	0.15786
2744.67739	0.15785
2743.71299	0.15797
2742.74860	0.15815
2741.78420	0.15842
2740.81980	0.15879
2739.85540	0.15926
2738.89100	0.15986
2737.92660	0.16062
2736.96221	0.16146
2735.99781	0.16223
2735.03341	0.16270
2734.06901	0.16267
2733.10461	0.16219
2732.14021	0.16141
2731.17582	0.16046
2730.21142	0.15948
2729.24702	0.15855
2728.28262	0.15765
2727.31822	0.15680
2726.35382	0.15611
2725.38943	0.15561
2724.42503	0.15515
2723.46063	0.15460
2722.49623	0.15411
2721.53183	0.15382
2720.56744	0.15359
2719.60304	0.15321
2718.63864	0.15274
2717.67424	0.15239
2716.70984	0.15226
2715.74544	0.15229
2714.78105	0.15248
2713.81665	0.15280
2712.85225	0.15325
2711.88785	0.15380
2710.92345	0.15441
2709.95905	0.15514
2708.99466	0.15603
2708.03026	0.15706
2707.06586	0.15807
2706.10146	0.15883
2705.13706	0.15921
2704.17267	0.15922
2703.20827	0.15897
2702.24387	0.15856
2701.27947	0.15810
2700.31507	0.15776
2699.35067	0.15770
2698.38628	0.15802
2697.42188	0.15873
2696.45748	0.15968
2695.49308	0.16060
2694.52868	0.16111
2693.56428	0.16091
2692.59989	0.16003
2691.63549	0.15869
2690.67109	0.15714
2689.70669	0.15562
2688.74229	0.15434
2687.77790	0.15335
2686.81350	0.15259
2685.84910	0.15198
2684.88470	0.15147
2683.92030	0.15102
2682.95590	0.15052
2681.99151	0.14989
2681.02711	0.14918
2680.06271	0.14843
2679.09831	0.14769
2678.13391	0.14705
2677.16951	0.14660
2676.20512	0.14632
2675.24072	0.14605
2674.27632	0.14571
2673.31192	0.14541
2672.34752	0.14519
2671.38313	0.14494
2670.41873	0.14459
2669.45433	0.14423
2668.48993	0.14390
2667.52553	0.14355
2666.56113	0.14315
2665.59674	0.14273
2664.63234	0.14235
2663.66794	0.14205
2662.70354	0.14175
2661.73914	0.14143
2660.77474	0.14114
2659.81035	0.14084
2658.84595	0.14047
2657.88155	0.14010
2656.91715	0.13978
2655.95275	0.13949
2654.98836	0.13927
2654.02396	0.13912
2653.05956	0.13895
2652.09516	0.13874
2651.13076	0.13853
2650.16636	0.13838
2649.20197	0.13830
2648.23757	0.13824
2647.27317	0.13822
2646.30877	0.13823
2645.34437	0.13825
2644.37997	0.13830
2643.41558	0.13832
2642.45118	0.13825
2641.48678	0.13815
2640.52238	0.13808
2639.55798	0.13792
2638.59359	0.13769
2637.62919	0.13743
2636.66479	0.13711
2635.70039	0.13680
2634.73599	0.13653
2633.77159	0.13623
2632.80720	0.13592
2631.84280	0.13569
2630.87840	0.13553
2629.91400	0.13536
2628.94960	0.13512
2627.98520	0.13490
2627.02081	0.13483
2626.05641	0.13484
2625.09201	0.13486
2624.12761	0.13497
2623.16321	0.13519
2622.19882	0.13547
2621.23442	0.13585
2620.27002	0.13644
2619.30562	0.13724
2618.34122	0.13820
2617.37682	0.13928
2616.41243	0.14035
2615.44803	0.14125
2614.48363	0.14177
2613.51923	0.14175
2612.55483	0.14125
2611.59043	0.14042
2610.62604	0.13936
2609.66164	0.13818
2608.69724	0.13709
2607.73284	0.13626
2606.76844	0.13573
2605.80404	0.13543
2604.83965	0.13520
2603.87525	0.13496
2602.91085	0.13475
2601.94645	0.13452
2600.98205	0.13426
2600.01766	0.13404
2599.05326	0.13384
2598.08886	0.13370
2597.12446	0.13367
2596.16006	0.13370
2595.19566	0.13381
2594.23127	0.13401
2593.26687	0.13429
2592.30247	0.13470
2591.33807	0.13524
2590.37367	0.13584
2589.40927	0.13644
2588.44488	0.13709
2587.48048	0.13786
2586.51608	0.13882
2585.55168	0.13999
2584.58728	0.14120
2583.62289	0.14207
2582.65849	0.14232
2581.69409	0.14183
2580.72969	0.14069
2579.76529	0.13920
2578.80089	0.13768
2577.83650	0.13631
2576.87210	0.13515
2575.90770	0.13416
2574.94330	0.13329
2573.97890	0.13250
2573.01450	0.13182
2572.05011	0.13123
2571.08571	0.13076
2570.12131	0.13042
2569.15691	0.13022
2568.19251	0.13022
2567.22812	0.13048
2566.26372	0.13095
2565.29932	0.13168
2564.33492	0.13260
2563.37052	0.13355
2562.40612	0.13429
2561.44173	0.13454
2560.47733	0.13423
2559.51293	0.13349
2558.54853	0.13263
2557.58413	0.13183
2556.61973	0.13108
2555.65534	0.13040
2554.69094	0.12988
2553.72654	0.12946
2552.76214	0.12906
2551.79774	0.12874
2550.83335	0.12856
2549.86895	0.12845
2548.90455	0.12835
2547.94015	0.12825
2546.97575	0.12816
2546.01135	0.12802
2545.04696	0.12786
2544.08256	0.12777
2543.11816	0.12776
2542.15376	0.12775
2541.18936	0.12772
2540.22496	0.12771
2539.26057	0.12770
2538.29617	0.12762
2537.33177	0.12751
2536.36737	0.12739
2535.40297	0.12720
2534.43858	0.12697
2533.47418	0.12678
2532.50978	0.12666
2531.54538	0.12659
2530.58098	0.12655
2529.61658	0.12647
2528.65219	0.12635
2527.68779	0.12624
2526.72339	0.12620
2525.75899	0.12619
2524.79459	0.12620
2523.83019	0.12622
2522.86580	0.12618
2521.90140	0.12603
2520.93700	0.12590
2519.97260	0.12582
2519.00820	0.12575
2518.04381	0.12569
2517.07941	0.12564
2516.11501	0.12554
2515.15061	0.12542
2514.18621	0.12534
2513.22181	0.12532
2512.25742	0.12529
2511.29302	0.12525
2510.32862	0.12520
2509.36422	0.12508
2508.39982	0.12487
2507.43542	0.12460
2506.47103	0.12433
2505.50663	0.12403
2504.54223	0.12374
2503.57783	0.12348
2502.61343	0.12322
2501.64904	0.12299
2500.68464	0.12282
2499.72024	0.12272
2498.75584	0.12269
2497.79144	0.12277
2496.82704	0.12297
2495.86265	0.12321
2494.89825	0.12344
2493.93385	0.12365
2492.96945	0.12380
2492.00505	0.12382
2491.04065	0.12367
2490.07626	0.12338
2489.11186	0.12302
2488.14746	0.12267
2487.18306	0.12235
2486.21866	0.12211
2485.25426	0.12190
2484.28987	0.12161
2483.32547	0.12131
2482.36107	0.12105
2481.39667	0.12085
2480.43227	0.12066
2479.46788	0.12048
2478.50348	0.12030
2477.53908	0.12013
2476.57468	0.11999
2475.61028	0.11985
2474.64588	0.11975
2473.68149	0.11971
2472.71709	0.11967
2471.75269	0.11960
2470.78829	0.11951
2469.82389	0.11941
2468.85949	0.11931
2467.89510	0.11920
2466.93070	0.11911
2465.96630	0.11905
2465.00190	0.11901
2464.03750	0.11902
2463.07311	0.11907
2462.10871	0.11917
2461.14431	0.11931
2460.17991	0.11940
2459.21551	0.11946
2458.25111	0.11952
2457.28672	0.11960
2456.32232	0.11969
2455.35792	0.11976
2454.39352	0.11975
2453.42912	0.11965
2452.46472	0.11954
2451.50033	0.11943
2450.53593	0.11935
2449.57153	0.11930
2448.60713	0.11924
2447.64273	0.11914
2446.67834	0.11906
2445.71394	0.11903
2444.74954	0.11898
2443.78514	0.11890
2442.82074	0.11882
2441.85634	0.11873
2440.89195	0.11860
2439.92755	0.11842
2438.96315	0.11824
2437.99875	0.11810
2437.03435	0.11798
2436.06995	0.11782
2435.10556	0.11759
2434.14116	0.11737
2433.17676	0.11724
2432.21236	0.11718
2431.24796	0.11715
2430.28357	0.11716
2429.31917	0.11724
2428.35477	0.11742
2427.39037	0.11766
2426.42597	0.11790
2425.46157	0.11809
2424.49718	0.11823
2423.53278	0.11827
2422.56838	0.11818
2421.60398	0.11799
2420.63958	0.11779
2419.67518	0.11768
2418.71079	0.11761
2417.74639	0.11751
2416.78199	0.11735
2415.81759	0.11722
2414.85319	0.11714
2413.88880	0.11703
2412.92440	0.11688
2411.96000	0.11677
2410.99560	0.11669
2410.03120	0.11656
2409.06680	0.11649
2408.10241	0.11649
2407.13801	0.11646
2406.17361	0.11639
2405.20921	0.11633
2404.24481	0.11628
2403.28041	0.11625
2402.31602	0.11623
2401.35162	0.11620
2400.38722	0.11627
2399.42282	0.11639
2398.45842	0.11645
2397.49403	0.11641
2396.52963	0.11639
2395.56523	0.11643
2394.60083	0.11646
2393.63643	0.11642
2392.67203	0.11636
2391.70764	0.11641
2390.74324	0.11652
2389.77884	0.11661
2388.81444	0.11667
2387.85004	0.11678
2386.88564	0.11696
2385.92125	0.11723
2384.95685	0.11761
2383.99245	0.11819
2383.02805	0.11898
2382.06365	0.11984
2381.09925	0.12067
2380.13486	0.12154
2379.17046	0.12246
2378.20606	0.12331
2377.24166	0.12405
2376.27726	0.12480
2375.31287	0.12563
2374.34847	0.12644
2373.38407	0.12730
2372.41967	0.12831
2371.45527	0.12945
2370.49087	0.13057
2369.52648	0.13158
2368.56208	0.13258
2367.59768	0.13360
2366.63328	0.13451
2365.66888	0.13525
2364.70448	0.13592
2363.74009	0.13669
2362.77569	0.13755
2361.81129	0.13824
2360.84689	0.13856
2359.88249	0.13861
2358.91810	0.13860
2357.95370	0.13855
2356.98930	0.13844
2356.02490	0.13826
2355.06050	0.13780
2354.09610	0.13695
2353.13171	0.13614
2352.16731	0.13541
2351.20291	0.13441
2350.23851	0.13330
2349.27411	0.13306
2348.30971	0.13452
2347.34532	0.13702
2346.38092	0.13901
2345.41652	0.13989
2344.45212	0.14001
2343.48772	0.13973
2342.52333	0.13914
2341.55893	0.13836
2340.59453	0.13762
2339.63013	0.13693
2338.66573	0.13644
2337.70133	0.13633
2336.73694	0.13609
2335.77254	0.13536
2334.80814	0.13480
2333.84374	0.13474
2332.87934	0.13479
2331.91494	0.13473
2330.95055	0.13436
2329.98615	0.13376
2329.02175	0.13321
2328.05735	0.13293
2327.09295	0.13288
2326.12856	0.13297
2325.16416	0.13323
2324.19976	0.13369
2323.23536	0.13414
2322.27096	0.13452
2321.30656	0.13501
2320.34217	0.13550
2319.37777	0.13581
2318.41337	0.13594
2317.44897	0.13599
2316.48457	0.13606
2315.52017	0.13592
2314.55578	0.13542
2313.59138	0.13443
2312.62698	0.13309
2311.66258	0.13179
2310.69818	0.13056
2309.73379	0.12939
2308.76939	0.12831
2307.80499	0.12746
2306.84059	0.12688
2305.87619	0.12644
2304.91179	0.12610
2303.94740	0.12585
2302.98300	0.12575
2302.01860	0.12572
2301.05420	0.12560
2300.08980	0.12530
2299.12540	0.12484
2298.16101	0.12434
2297.19661	0.12390
2296.23221	0.12356
2295.26781	0.12323
2294.30341	0.12293
2293.33902	0.12272
2292.37462	0.12249
2291.41022	0.12224
2290.44582	0.12200
2289.48142	0.12183
2288.51702	0.12169
2287.55263	0.12146
2286.58823	0.12120
2285.62383	0.12098
2284.65943	0.12074
2283.69503	0.12043
2282.73063	0.12014
2281.76624	0.11987
2280.80184	0.11957
2279.83744	0.11923
2278.87304	0.11884
2277.90864	0.11845
2276.94425	0.11804
2275.97985	0.11765
2275.01545	0.11731
2274.05105	0.11698
2273.08665	0.11668
2272.12225	0.11646
2271.15786	0.11636
2270.19346	0.11629
2269.22906	0.11620
2268.26466	0.11619
2267.30026	0.11630
2266.33586	0.11650
2265.37147	0.11675
2264.40707	0.11704
2263.44267	0.11737
2262.47827	0.11773
2261.51387	0.11808
2260.54947	0.11839
2259.58508	0.11867
2258.62068	0.11890
2257.65628	0.11906
2256.69188	0.11917
2255.72748	0.11920
2254.76309	0.11914
2253.79869	0.11900
2252.83429	0.11878
2251.86989	0.11848
2250.90549	0.11813
2249.94109	0.11770
2248.97670	0.11722
2248.01230	0.11680
2247.04790	0.11644
2246.08350	0.11613
2245.11910	0.11593
2244.15470	0.11585
2243.19031	0.11583
2242.22591	0.11590
2241.26151	0.11605
2240.29711	0.11626
2239.33271	0.11650
2238.36832	0.11675
2237.40392	0.11696
2236.43952	0.11716
2235.47512	0.11735
2234.51072	0.11750
2233.54632	0.11769
2232.58193	0.11794
2231.61753	0.11823
2230.65313	0.11859
2229.68873	0.11903
2228.72433	0.11958
2227.75993	0.12020
2226.79554	0.12085
2225.83114	0.12147
2224.86674	0.12201
2223.90234	0.12242
2222.93794	0.12265
2221.97355	0.12264
2221.00915	0.12238
2220.04475	0.12193
2219.08035	0.12137
2218.11595	0.12069
2217.15155	0.11988
2216.18716	0.11906
2215.22276	0.11834
2214.25836	0.11766
2213.29396	0.11702
2212.32956	0.11647
2211.36516	0.11597
2210.40077	0.11551
2209.43637	0.11517
2208.47197	0.11497
2207.50757	0.11486
2206.54317	0.11476
2205.57878	0.11464
2204.61438	0.11449
2203.64998	0.11432
2202.68558	0.11417
2201.72118	0.11406
2200.75678	0.11397
2199.79239	0.11386
2198.82799	0.11378
2197.86359	0.11375
2196.89919	0.11365
2195.93479	0.11350
2194.97039	0.11339
2194.00600	0.11333
2193.04160	0.11329
2192.07720	0.11325
2191.11280	0.11325
2190.14840	0.11328
2189.18401	0.11328
2188.21961	0.11328
2187.25521	0.11323
2186.29081	0.11313
2185.32641	0.11306
2184.36201	0.11308
2183.39762	0.11308
2182.43322	0.11295
2181.46882	0.11274
2180.50442	0.11253
2179.54002	0.11236
2178.57562	0.11224
2177.61123	0.11215
2176.64683	0.11207
2175.68243	0.11202
2174.71803	0.11199
2173.75363	0.11193
2172.78924	0.11180
2171.82484	0.11170
2170.86044	0.11160
2169.89604	0.11148
2168.93164	0.11135
2167.96724	0.11121
2167.00285	0.11106
2166.03845	0.11089
2165.07405	0.11077
2164.10965	0.11073
2163.14525	0.11073
2162.18085	0.11071
2161.21646	0.11076
2160.25206	0.11086
2159.28766	0.11090
2158.32326	0.11092
2157.35886	0.11096
2156.39447	0.11095
2155.43007	0.11086
2154.46567	0.11075
2153.50127	0.11068
2152.53687	0.11072
2151.57247	0.11086
2150.60808	0.11103
2149.64368	0.11119
2148.67928	0.11133
2147.71488	0.11146
2146.75048	0.11155
2145.78608	0.11156
2144.82169	0.11146
2143.85729	0.11125
2142.89289	0.11097
2141.92849	0.11073
2140.96409	0.11057
2139.99969	0.11046
2139.03530	0.11041
2138.07090	0.11043
2137.10650	0.11050
2136.14210	0.11051
2135.17770	0.11037
2134.21331	0.11013
2133.24891	0.10989
2132.28451	0.10966
2131.32011	0.10940
2130.35571	0.10909
2129.39131	0.10879
2128.42692	0.10859
2127.46252	0.10840
2126.49812	0.10811
2125.53372	0.10781
2124.56932	0.10758
2123.60492	0.10738
2122.64053	0.10718
2121.67613	0.10701
2120.71173	0.10682
2119.74733	0.10664
2118.78293	0.10653
2117.81854	0.10648
2116.85414	0.10643
2115.88974	0.10638
2114.92534	0.10636
2113.96094	0.10636
2112.99654	0.10640
2112.03215	0.10648
2111.06775	0.10656
2110.10335	0.10661
2109.13895	0.10664
2108.17455	0.10667
2107.21015	0.10671
2106.24576	0.10673
2105.28136	0.10671
2104.31696	0.10664
2103.35256	0.10653
2102.38816	0.10642
2101.42377	0.10635
2100.45937	0.10633
2099.49497	0.10630
2098.53057	0.10624
2097.56617	0.10615
2096.60177	0.10609
2095.63738	0.10599
2094.67298	0.10581
2093.70858	0.10559
2092.74418	0.10536
2091.77978	0.10512
2090.81538	0.10489
2089.85099	0.10463
2088.88659	0.10436
2087.92219	0.10415
2086.95779	0.10398
2085.99339	0.10384
2085.02900	0.10372
2084.06460	0.10362
2083.10020	0.10354
2082.13580	0.10347
2081.17140	0.10337
2080.20700	0.10324
2079.24261	0.10313
2078.27821	0.10307
2077.31381	0.10303
2076.34941	0.10300
2075.38501	0.10298
2074.42061	0.10296
2073.45622	0.10291
2072.49182	0.10281
2071.52742	0.10271
2070.56302	0.10265
2069.59862	0.10260
2068.63423	0.10256
2067.66983	0.10253
2066.70543	0.10256
2065.74103	0.10259
2064.77663	0.10250
2063.81223	0.10233
2062.84784	0.10223
2061.88344	0.10221
2060.91904	0.10221
2059.95464	0.10221
2058.99024	0.10221
2058.02584	0.10221
2057.06145	0.10223
2056.09705	0.10223
2055.13265	0.10221
2054.16825	0.10216
2053.20385	0.10208
2052.23946	0.10197
2051.27506	0.10184
2050.31066	0.10171
2049.34626	0.10163
2048.38186	0.10164
2047.41746	0.10170
2046.45307	0.10171
2045.48867	0.10169
2044.52427	0.10164
2043.55987	0.10152
2042.59547	0.10137
2041.63107	0.10122
2040.66668	0.10100
2039.70228	0.10073
2038.73788	0.10055
2037.77348	0.10044
2036.80908	0.10035
2035.84469	0.10023
2034.88029	0.10009
2033.91589	0.09996
2032.95149	0.09987
2031.98709	0.09980
2031.02269	0.09976
2030.05830	0.09976
2029.09390	0.09979
2028.12950	0.09987
2027.16510	0.09999
2026.20070	0.10012
2025.23630	0.10024
2024.27191	0.10035
2023.30751	0.10046
2022.34311	0.10056
2021.37871	0.10064
2020.41431	0.10079
2019.44991	0.10101
2018.48552	0.10124
2017.52112	0.10139
2016.55672	0.10128
2015.59232	0.10090
2014.62792	0.10049
2013.66353	0.10008
2012.69913	0.09955
2011.73473	0.09896
2010.77033	0.09839
2009.80593	0.09788
2008.84153	0.09740
2007.87714	0.09691
2006.91274	0.09643
2005.94834	0.09599
2004.98394	0.09560
2004.01954	0.09523
2003.05514	0.09491
2002.09075	0.09463
2001.12635	0.09440
2000.16195	0.09421
1999.19755	0.09404
1998.23315	0.09390
1997.26876	0.09392
1996.30436	0.09415
1995.33996	0.09459
1994.37556	0.09535
1993.41116	0.09660
1992.44676	0.09807
1991.48237	0.09930
1990.51797	0.10060
1989.55357	0.10247
1988.58917	0.10462
1987.62477	0.10664
1986.66037	0.10868
1985.69598	0.11088
1984.73158	0.11313
1983.76718	0.11529
1982.80278	0.11731
1981.83838	0.11924
1980.87399	0.12122
1979.90959	0.12334
1978.94519	0.12571
1977.98079	0.12833
1977.01639	0.13101
1976.05199	0.13330
1975.08760	0.13487
1974.12320	0.13607
1973.15880	0.13744
1972.19440	0.13908
1971.23000	0.14076
1970.26560	0.14235
1969.30121	0.14403
1968.33681	0.14605
1967.37241	0.14828
1966.40801	0.15044
1965.44361	0.15277
1964.47922	0.15562
1963.51482	0.15891
1962.55042	0.16216
1961.58602	0.16466
1960.62162	0.16580
1959.65722	0.16538
1958.69283	0.16360
1957.72843	0.16060
1956.76403	0.15663
1955.79963	0.15203
1954.83523	0.14703
1953.87083	0.14191
1952.90644	0.13700
1951.94204	0.13245
1950.97764	0.12825
1950.01324	0.12441
1949.04884	0.12096
1948.08445	0.11797
1947.12005	0.11539
1946.15565	0.11296
1945.19125	0.11061
1944.22685	0.10888
1943.26245	0.10776
1942.29806	0.10611
1941.33366	0.10378
1940.36926	0.10179
1939.40486	0.10028
1938.44046	0.09890
1937.47606	0.09763
1936.51167	0.09650
1935.54727	0.09546
1934.58287	0.09451
1933.61847	0.09367
1932.65407	0.09287
1931.68968	0.09214
1930.72528	0.09157
1929.76088	0.09116
1928.79648	0.09084
1927.83208	0.09059
1926.86768	0.09045
1925.90329	0.09048
1924.93889	0.09085
1923.97449	0.09164
1923.01009	0.09233
1922.04569	0.09252
1921.08129	0.09288
1920.11690	0.09417
1919.15250	0.09654
1918.18810	0.09901
1917.22370	0.10062
1916.25930	0.10238
1915.29490	0.10519
1914.33051	0.10868
1913.36611	0.11262
1912.40171	0.11705
1911.43731	0.12186
1910.47291	0.12650
1909.50852	0.13006
1908.54412	0.13214
1907.57972	0.13312
1906.61532	0.13365
1905.65092	0.13428
1904.68652	0.13510
1903.72213	0.13592
1902.75773	0.13668
1901.79333	0.13758
1900.82893	0.13874
1899.86453	0.14022
1898.90013	0.14203
1897.93574	0.14425
1896.97134	0.14711
1896.00694	0.15051
1895.04254	0.15367
1894.07814	0.15607
1893.11375	0.15803
1892.14935	0.16006
1891.18495	0.16261
1890.22055	0.16539
1889.25615	0.16678
1888.29175	0.16611
1887.32736	0.16417
1886.36296	0.16114
1885.39856	0.15696
1884.43416	0.15194
1883.46976	0.14649
1882.50536	0.14094
1881.54097	0.13555
1880.57657	0.13051
1879.61217	0.12591
1878.64777	0.12172
1877.68337	0.11794
1876.71898	0.11458
1875.75458	0.11165
1874.79018	0.10915
1873.82578	0.10701
1872.86138	0.10515
1871.89698	0.10373
1870.93259	0.10323
1869.96819	0.10338
1869.00379	0.10269
1868.03939	0.10082
1867.07499	0.09891
1866.11059	0.09735
1865.14620	0.09612
1864.18180	0.09529
1863.21740	0.09480
1862.25300	0.09457
1861.28860	0.09449
1860.32421	0.09454
1859.35981	0.09482
1858.39541	0.09526
1857.43101	0.09574
1856.46661	0.09634
1855.50221	0.09703
1854.53782	0.09772
1853.57342	0.09842
1852.60902	0.09923
1851.64462	0.10025
1850.68022	0.10158
1849.71582	0.10342
1848.75143	0.10586
1847.78703	0.10856
1846.82263	0.11147
1845.85823	0.11556
1844.89383	0.12065
1843.92944	0.12354
1842.96504	0.12357
1842.00064	0.12360
1841.03624	0.12410
1840.07184	0.12475
1839.10744	0.12580
1838.14305	0.12721
1837.17865	0.12848
1836.21425	0.12930
1835.24985	0.13002
1834.28545	0.13094
1833.32105	0.13204
1832.35666	0.13367
1831.39226	0.13679
1830.42786	0.14110
1829.46346	0.14444
1828.49906	0.14641
1827.53467	0.14877
1826.57027	0.15189
1825.60587	0.15418
1824.64147	0.15381
1823.67707	0.15199
1822.71267	0.15033
1821.74828	0.14846
1820.78388	0.14621
1819.81948	0.14380
1818.85508	0.14131
1817.89068	0.13857
1816.92628	0.13521
1815.96189	0.13134
1814.99749	0.12722
1814.03309	0.12307
1813.06869	0.11916
1812.10429	0.11574
1811.13990	0.11239
1810.17550	0.10857
1809.21110	0.10502
1808.24670	0.10241
1807.28230	0.10020
1806.31790	0.09817
1805.35351	0.09650
1804.38911	0.09525
1803.42471	0.09457
1802.46031	0.09401
1801.49591	0.09320
1800.53151	0.09254
1799.56712	0.09164
1798.60272	0.09025
1797.63832	0.08952
1796.67392	0.08963
1795.70952	0.08961
1794.74512	0.08996
1793.78073	0.09180
1792.81633	0.09376
1791.85193	0.09372
1790.88753	0.09284
1789.92313	0.09255
1788.95874	0.09297
1787.99434	0.09390
1787.02994	0.09519
1786.06554	0.09705
1785.10114	0.09893
1784.13674	0.10014
1783.17235	0.10175
1782.20795	0.10477
1781.24355	0.10872
1780.27915	0.11230
1779.31475	0.11520
1778.35035	0.11807
1777.38596	0.12099
1776.42156	0.12355
1775.45716	0.12502
1774.49276	0.12604
1773.52836	0.12769
1772.56397	0.12790
1771.59957	0.12448
1770.63517	0.12022
1769.67077	0.11787
1768.70637	0.11659
1767.74197	0.11375
1766.77758	0.10992
1765.81318	0.10700
1764.84878	0.10459
1763.88438	0.10278
1762.91998	0.10200
1761.95558	0.10030
1760.99119	0.09638
1760.02679	0.09293
1759.06239	0.09124
1758.09799	0.09066
1757.13359	0.08994
1756.16920	0.08785
1755.20480	0.08564
1754.24040	0.08461
1753.27600	0.08492
1752.31160	0.08646
1751.34720	0.08709
1750.38281	0.08577
1749.41841	0.08502
1748.45401	0.08474
1747.48961	0.08365
1746.52521	0.08239
1745.56081	0.08178
1744.59642	0.08208
1743.63202	0.08245
1742.66762	0.08190
1741.70322	0.08189
1740.73882	0.08345
1739.77443	0.08409
1738.81003	0.08247
1737.84563	0.08134
1736.88123	0.08190
1735.91683	0.08452
1734.95243	0.08861
1733.98804	0.08919
1733.02364	0.08500
1732.05924	0.08250
1731.09484	0.08274
1730.13044	0.08318
1729.16604	0.08226
1728.20165	0.08129
1727.23725	0.08106
1726.27285	0.08103
1725.30845	0.08114
1724.34405	0.08144
1723.37966	0.08144
1722.41526	0.08103
1721.45086	0.08091
1720.48646	0.08195
1719.52206	0.08489
1718.55766	0.08847
1717.59327	0.08863
1716.62887	0.08651
1715.66447	0.08627
1714.70007	0.08637
1713.73567	0.08514
1712.77127	0.08412
1711.80688	0.08410
1710.84248	0.08434
1709.87808	0.08396
1708.91368	0.08332
1707.94928	0.08366
1706.98489	0.08461
1706.02049	0.08468
1705.05609	0.08381
1704.09169	0.08249
1703.12729	0.08184
1702.16289	0.08430
1701.19850	0.09023
1700.23410	0.09206
1699.26970	0.08612
1698.30530	0.08363
1697.34090	0.08570
1696.37650	0.08846
1695.41211	0.08612
1694.44771	0.08153
1693.48331	0.07959
1692.51891	0.07920
1691.55451	0.07937
1690.59012	0.07986
1689.62572	0.08007
1688.66132	0.07981
1687.69692	0.07951
1686.73252	0.08064
1685.76812	0.08452
1684.80373	0.08898
1683.83933	0.08770
1682.87493	0.08311
1681.91053	0.08106
1680.94613	0.08158
1679.98173	0.08243
1679.01734	0.08276
1678.05294	0.08395
1677.08854	0.08727
1676.12414	0.09261
1675.15974	0.09671
1674.19534	0.09785
1673.23095	0.10035
1672.26655	0.10515
1671.30215	0.11012
1670.33775	0.11464
1669.37335	0.11822
1668.40896	0.11912
1667.44456	0.11933
1666.48016	0.12095
1665.51576	0.12350
1664.55136	0.12680
1663.58696	0.13054
1662.62257	0.13247
1661.65817	0.13193
1660.69377	0.13142
1659.72937	0.13148
1658.76497	0.13129
1657.80057	0.13066
1656.83618	0.13007
1655.87178	0.13090
1654.90738	0.13420
1653.94298	0.13874
1652.97858	0.13654
1652.01419	0.12669
1651.04979	0.12148
1650.08539	0.12090
1649.12099	0.12256
1648.15659	0.12483
1647.19219	0.12596
1646.22780	0.12408
1645.26340	0.11955
1644.29900	0.11617
1643.33460	0.11488
1642.37020	0.11437
1641.40580	0.11402
1640.44141	0.11383
1639.47701	0.11410
1638.51261	0.11529
1637.54821	0.11735
1636.58381	0.12013
1635.61942	0.12108
1634.65502	0.11713
1633.69062	0.11341
1632.72622	0.11226
1631.76182	0.11198
1630.79742	0.11178
1629.83303	0.11204
1628.86863	0.11300
1627.90423	0.11336
1626.93983	0.11229
1625.97543	0.11184
1625.01103	0.11356
1624.04664	0.11628
1623.08224	0.11715
1622.11784	0.11670
1621.15344	0.11765
1620.18904	0.12011
1619.22465	0.12339
1618.26025	0.12770
1617.29585	0.13152
1616.33145	0.12970
1615.36705	0.12397
1614.40265	0.11936
1613.43826	0.11549
1612.47386	0.11193
1611.50946	0.10904
1610.54506	0.10683
1609.58066	0.10477
1608.61626	0.10271
1607.65187	0.10098
1606.68747	0.09960
1605.72307	0.09851
1604.75867	0.09779
1603.79427	0.09718
1602.82988	0.09619
1601.86548	0.09483
1600.90108	0.09334
1599.93668	0.09193
1598.97228	0.09071
1598.00788	0.08969
1597.04349	0.08909
1596.07909	0.08955
1595.11469	0.09265
1594.15029	0.10183
1593.18589	0.12389
1592.22149	0.16727
1591.25710	0.23370
1590.29270	0.30781
1589.32830	0.35958
1588.36390	0.36701
1587.39950	0.33703
1586.43511	0.29349
1585.47071	0.25122
1584.50631	0.21263
1583.54191	0.17956
1582.57751	0.15541
1581.61311	0.14029
1580.64872	0.13077
1579.68432	0.12308
1578.71992	0.11578
1577.75552	0.11025
1576.79112	0.10502
1575.82672	0.09560
1574.86233	0.08679
1573.89793	0.08267
1572.93353	0.08149
1571.96913	0.08385
1571.00473	0.09396
1570.04034	0.11838
1569.07594	0.15326
1568.11154	0.17803
1567.14714	0.18398
1566.18274	0.17282
1565.21834	0.15011
1564.25395	0.12654
1563.28955	0.11104
1562.32515	0.10453
1561.36075	0.10448
1560.39635	0.10751
1559.43195	0.10811
1558.46756	0.10216
1557.50316	0.09261
1556.53876	0.08644
1555.57436	0.08499
1554.60996	0.08409
1553.64556	0.08022
1552.68117	0.07639
1551.71677	0.07497
1550.75237	0.07464
1549.78797	0.07296
1548.82357	0.06968
1547.85918	0.06696
1546.89478	0.06589
1545.93038	0.06586
1544.96598	0.06477
1544.00158	0.06314
1543.03718	0.06312
1542.07279	0.06337
1541.10839	0.06327
1540.14399	0.06354
1539.17959	0.05981
1538.21519	0.05283
1537.25079	0.04869
1536.28640	0.04738
1535.32200	0.04794
1534.35760	0.04932
1533.39320	0.04839
1532.42880	0.04487
1531.46441	0.04196
1530.50001	0.04042
1529.53561	0.04010
1528.57121	0.04030
1527.60681	0.04007
1526.64241	0.03986
1525.67802	0.03929
1524.71362	0.03770
1523.74922	0.03732
1522.78482	0.03915
1521.82042	0.04062
1520.85602	0.03823
1519.89163	0.03389
1518.92723	0.03234
1517.96283	0.03367
1516.99843	0.03384
1516.03403	0.03119
1515.06964	0.02854
1514.10524	0.02727
1513.14084	0.02722
1512.17644	0.02698
1511.21204	0.02626
1510.24764	0.02668
1509.28325	0.02850
1508.31885	0.03140
1507.35445	0.03449
1506.39005	0.03343
1505.42565	0.02724
1504.46125	0.02234
1503.49686	0.02063
1502.53246	0.02053
1501.56806	0.02058
1500.60366	0.02114
1499.63926	0.02260
1498.67487	0.02352
1497.71047	0.02393
1496.74607	0.02486
1495.78167	0.02443
1494.81727	0.02325
1493.85287	0.02409
1492.88848	0.02749
1491.92408	0.03441
1490.95968	0.04703
1489.99528	0.06754
1489.03088	0.09724
1488.06648	0.14138
1487.10209	0.20409
1486.13769	0.27154
1485.17329	0.32461
1484.20889	0.34806
1483.24449	0.32849
1482.28010	0.27741
1481.31570	0.22238
1480.35130	0.18084
1479.38690	0.15300
1478.42250	0.13325
1477.45810	0.11819
1476.49371	0.10376
1475.52931	0.08954
1474.56491	0.07964
1473.60051	0.07311
1472.63611	0.06589
1471.67171	0.05701
1470.70732	0.04954
1469.74292	0.04477
1468.77852	0.04151
1467.81412	0.03888
1466.84972	0.03724
1465.88533	0.03674
1464.92093	0.03505
1463.95653	0.03114
1462.99213	0.02782
1462.02773	0.02588
1461.06333	0.02484
1460.09894	0.02500
1459.13454	0.02643
1458.17014	0.02833
1457.20574	0.02843
1456.24134	0.02477
1455.27694	0.02164
1454.31255	0.02157
1453.34815	0.02312
1452.38375	0.02376
1451.41935	0.02131
1450.45495	0.01695
1449.49055	0.01349
1448.52616	0.01130
1447.56176	0.00880
1446.59736	0.00633
1445.63296	0.00559
1444.66856	0.00647
1443.70417	0.00902
1442.73977	0.01306
1441.77537	0.01757
1440.81097	0.02100
1439.84657	0.02282
1438.88217	0.02534
1437.91778	0.03276
1436.95338	0.05157
1435.98898	0.08531
1435.02458	0.13679
1434.06018	0.22568
1433.09578	0.37696
1432.13139	0.59105
1431.16699	0.83607
1430.20259	1.07665
1429.23819	1.28600
1428.27379	1.42578
1427.30940	1.45336
1426.34500	1.35696
1425.38060	1.18817
1424.41620	0.99894
1423.45180	0.82513
1422.48740	0.69489
1421.52301	0.60841
1420.55861	0.55136
1419.59421	0.50207
1418.62981	0.45084
1417.66541	0.40630
1416.70101	0.36759
1415.73662	0.33472
1414.77222	0.30908
1413.80782	0.28888
1412.84342	0.27230
1411.87902	0.25810
1410.91463	0.24572
1409.95023	0.23468
1408.98583	0.22471
1408.02143	0.21551
1407.05703	0.20746
1406.09263	0.20068
1405.12824	0.19390
1404.16384	0.18667
1403.19944	0.18042
1402.23504	0.17579
1401.27064	0.17263
1400.30624	0.17134
1399.34185	0.17106
1398.37745	0.17089
1397.41305	0.17240
1396.44865	0.17738
1395.48425	0.18651
1394.51986	0.19938
1393.55546	0.21467
1392.59106	0.23156
1391.62666	0.24809
1390.66226	0.25878
1389.69786	0.26023
1388.73347	0.25494
1387.76907	0.24599
1386.80467	0.23636
1385.84027	0.22952
1384.87587	0.22541
1383.91147	0.22163
1382.94708	0.21688
1381.98268	0.21167
1381.01828	0.20698
1380.05388	0.20332
1379.08948	0.20019
1378.12509	0.19653
1377.16069	0.19172
1376.19629	0.18611
1375.23189	0.17993
1374.26749	0.17242
1373.30309	0.16361
1372.33870	0.15511
1371.37430	0.14789
1370.40990	0.14180
1369.44550	0.13661
1368.48110	0.13202
1367.51670	0.12811
1366.55231	0.12547
1365.58791	0.12433
1364.62351	0.12436
1363.65911	0.12370
1362.69471	0.12025
1361.73032	0.11501
1360.76592	0.10986
1359.80152	0.10545
1358.83712	0.10196
1357.87272	0.09904
1356.90832	0.09637
1355.94393	0.09397
1354.97953	0.09163
1354.01513	0.08910
1353.05073	0.08658
1352.08633	0.08421
1351.12193	0.08190
1350.15754	0.07966
1349.19314	0.07736
1348.22874	0.07494
1347.26434	0.07250
1346.29994	0.07028
1345.33555	0.06838
1344.37115	0.06680
1343.40675	0.06571
1342.44235	0.06564
1341.47795	0.06737
1340.51355	0.07143
1339.54916	0.07818
1338.58476	0.08826
1337.62036	0.10202
1336.65596	0.11814
1335.69156	0.13332
1334.72716	0.14495
1333.76277	0.15337
1332.79837	0.15988
1331.83397	0.16431
1330.86957	0.16528
1329.90517	0.16199
1328.94077	0.15526
1327.97638	0.14662
1327.01198	0.13737
1326.04758	0.12833
1325.08318	0.12003
1324.11878	0.11270
1323.15439	0.10634
1322.18999	0.10096
1321.22559	0.09665
1320.26119	0.09343
1319.29679	0.09098
1318.33239	0.08910
1317.36800	0.08805
1316.40360	0.08811
1315.43920	0.08932
1314.47480	0.09174
1313.51040	0.09540
1312.54600	0.10060
1311.58161	0.10803
1310.61721	0.11841
1309.65281	0.13149
1308.68841	0.14569
1307.72401	0.15883
1306.75962	0.16905
1305.79522	0.17525
1304.83082	0.17704
1303.86642	0.17483
1302.90202	0.16944
1301.93762	0.16187
1300.97323	0.15309
1300.00883	0.14404
1299.04443	0.13552
1298.08003	0.12815
1297.11563	0.12224
1296.15123	0.11767
1295.18684	0.11410
1294.22244	0.11104
1293.25804	0.10794
1292.29364	0.10458
1291.32924	0.10112
1290.36485	0.09785
1289.40045	0.09486
1288.43605	0.09193
1287.47165	0.08873
1286.50725	0.08518
1285.54285	0.08141
1284.57846	0.07757
1283.61406	0.07378
1282.64966	0.07019
1281.68526	0.06692
1280.72086	0.06405
1279.75646	0.06160
1278.79207	0.05952
1277.82767	0.05775
1276.86327	0.05627
1275.89887	0.05500
1274.93447	0.05393
1273.97008	0.05316
1273.00568	0.05294
1272.04128	0.05370
1271.07688	0.05597
1270.11248	0.06029
1269.14808	0.06711
1268.18369	0.07667
1267.21929	0.08859
1266.25489	0.10180
1265.29049	0.11497
1264.32609	0.12720
1263.36169	0.13802
1262.39730	0.14702
1261.43290	0.15345
1260.46850	0.15638
1259.50410	0.15544
1258.53970	0.15118
1257.57531	0.14410
1256.61091	0.13434
1255.64651	0.12243
1254.68211	0.10945
1253.71771	0.09649
1252.75331	0.08435
1251.78892	0.07361
1250.82452	0.06456
1249.86012	0.05716
1248.89572	0.05118
1247.93132	0.04635
1246.96692	0.04247
1246.00253	0.03932
1245.03813	0.03665
1244.07373	0.03436
1243.10933	0.03241
1242.14493	0.03078
1241.18054	0.02943
1240.21614	0.02833
1239.25174	0.02732
1238.28734	0.02614
1237.32294	0.02480
1236.35854	0.02344
1235.39415	0.02223
1234.42975	0.02133
1233.46535	0.02097
1232.50095	0.02154
1231.53655	0.02307
1230.57215	0.02442
1229.60776	0.02386
1228.64336	0.02135
1227.67896	0.01853
1226.71456	0.01653
1225.75016	0.01527
1224.78577	0.01434
1223.82137	0.01348
1222.85697	0.01263
1221.89257	0.01187
1220.92817	0.01128
1219.96377	0.01080
1218.99938	0.01026
1218.03498	0.00967
1217.07058	0.00911
1216.10618	0.00863
1215.14178	0.00819
1214.17738	0.00774
1213.21299	0.00728
1212.24859	0.00681
1211.28419	0.00630
1210.31979	0.00584
1209.35539	0.00557
1208.39099	0.00559
1207.42660	0.00588
1206.46220	0.00647
1205.49780	0.00725
1204.53340	0.00820
1203.56900	0.00936
1202.60461	0.01087
1201.64021	0.01287
1200.67581	0.01563
1199.71141	0.01943
1198.74701	0.02447
1197.78261	0.03090
1196.81822	0.03897
1195.85382	0.04916
1194.88942	0.06186
1193.92502	0.07714
1192.96062	0.09474
1191.99622	0.11416
1191.03183	0.13493
1190.06743	0.15663
1189.10303	0.17828
1188.13863	0.19791
1187.17423	0.21331
1186.20984	0.22282
1185.24544	0.22485
1184.28104	0.21756
1183.31664	0.20094
1182.35224	0.17871
1181.38784	0.15624
1180.42345	0.13700
1179.45905	0.12182
1178.49465	0.11020
1177.53025	0.10127
1176.56585	0.09416
1175.60145	0.08835
1174.63706	0.08361
1173.67266	0.07980
1172.70826	0.07690
1171.74386	0.07498
1170.77946	0.07415
1169.81507	0.07438
1168.85067	0.07555
1167.88627	0.07752
1166.92187	0.08031
1165.95747	0.08397
1164.99307	0.08874
1164.02868	0.09513
1163.06428	0.10357
1162.09988	0.11378
1161.13548	0.12504
1160.17108	0.13726
1159.20668	0.15050
1158.24229	0.16237
1157.27789	0.16796
1156.31349	0.16442
1155.34909	0.15444
1154.38469	0.14334
1153.42030	0.13471
1152.45590	0.12965
1151.49150	0.12783
1150.52710	0.12822
1149.56270	0.13008
1148.59830	0.13327
1147.63391	0.13783
1146.66951	0.14365
1145.70511	0.15054
1144.74071	0.15841
1143.77631	0.16718
1142.81191	0.17680
1141.84752	0.18747
1140.88312	0.19954
1139.91872	0.21318
1138.95432	0.22853
1137.98992	0.24573
1137.02553	0.26492
1136.06113	0.28646
1135.09673	0.31087
1134.13233	0.33873
1133.16793	0.37085
1132.20353	0.40824
1131.23914	0.45207
1130.27474	0.50366
1129.31034	0.56450
1128.34594	0.63645
1127.38154	0.72189
1126.41714	0.82339
1125.45275	0.94224
1124.48835	1.07674
1123.52395	1.22009
1122.55955	1.35955
1121.59515	1.47934
1120.63076	1.56689
1119.66636	1.61686
1118.70196	1.62898
1117.73756	1.60376
1116.77316	1.54294
1115.80876	1.45447
1114.84437	1.35384
1113.87997	1.25963
1112.91557	1.18712
1111.95117	1.14331
1110.98677	1.12514
1110.02237	1.12099
1109.05798	1.11625
1108.09358	1.10166
1107.12918	1.07538
1106.16478	1.03692
1105.20038	0.98586
1104.23598	0.92711
1103.27159	0.86997
1102.30719	0.82116
1101.34279	0.78143
1100.37839	0.74761
1099.41399	0.71567
1098.44960	0.68293
1097.48520	0.64911
1096.52080	0.61579
1095.55640	0.58511
1094.59200	0.55895
1093.62760	0.53854
1092.66321	0.52454
1091.69881	0.51696
1090.73441	0.51518
1089.77001	0.51819
1088.80561	0.52490
1087.84121	0.53419
1086.87682	0.54519
1085.91242	0.55772
1084.94802	0.57163
1083.98362	0.58597
1083.01922	0.59939
1082.05483	0.61054
1081.09043	0.61795
1080.12603	0.62038
1079.16163	0.61770
1078.19723	0.61103
1077.23283	0.60182
1076.26844	0.59110
1075.30404	0.57998
1074.33964	0.56986
1073.37524	0.56193
1072.41084	0.55659
1071.44644	0.55300
1070.48205	0.54942
1069.51765	0.54430
1068.55325	0.53711
1067.58885	0.52811
1066.62445	0.51766
1065.66006	0.50536
1064.69566	0.49071
1063.73126	0.47417
1062.76686	0.45710
1061.80246	0.44101
1060.83806	0.42703
1059.87367	0.41554
1058.90927	0.40626
1057.94487	0.39869
1056.98047	0.39223
1056.01607	0.38663
1055.05167	0.38205
1054.08728	0.37851
1053.12288	0.37581
1052.15848	0.37382
1051.19408	0.37237
1050.22968	0.37121
1049.26529	0.37007
1048.30089	0.36880
1047.33649	0.36725
1046.37209	0.36551
1045.40769	0.36375
1044.44329	0.36197
1043.47890	0.36013
1042.51450	0.35815
1041.55010	0.35586
1040.58570	0.35324
1039.62130	0.35041
1038.65690	0.34741
1037.69251	0.34427
1036.72811	0.34112
1035.76371	0.33822
1034.79931	0.33628
1033.83491	0.33763
1032.87052	0.34648
1031.90612	0.36573
1030.94172	0.39278
1029.97732	0.42115
1029.01292	0.44544
1028.04852	0.46053
1027.08413	0.45909
1026.11973	0.43983
1025.15533	0.41287
1024.19093	0.38899
1023.22653	0.37137
1022.26213	0.35866
1021.29774	0.34917
1020.33334	0.34192
1019.36894	0.33629
1018.40454	0.33158
1017.44014	0.32714
1016.47575	0.32262
1015.51135	0.31801
1014.54695	0.31347
1013.58255	0.30930
1012.61815	0.30544
1011.65375	0.30164
1010.68936	0.29779
1009.72496	0.29387
1008.76056	0.28993
1007.79616	0.28600
1006.83176	0.28222
1005.86736	0.27905
1004.90297	0.27729
1003.93857	0.27840
1002.97417	0.28548
1002.00977	0.30461
1001.04537	0.34443
1000.08098	0.40876
999.11658	0.48362
998.15218	0.53599
997.18778	0.53840
996.22338	0.49702
995.25898	0.44170
994.29459	0.39455
993.33019	0.36023
992.36579	0.33538
991.40139	0.31678
990.43699	0.30307
989.47259	0.29385
988.50820	0.28784
987.54380	0.28255
986.57940	0.27616
985.61500	0.26854
984.65060	0.26048
983.68620	0.25366
982.72181	0.25024
981.75741	0.24935
980.79301	0.24617
979.82861	0.23827
978.86421	0.22866
977.89982	0.22075
976.93542	0.21536
975.97102	0.21223
975.00662	0.21068
974.04222	0.20904
973.07782	0.20588
972.11343	0.20153
971.14903	0.19675
970.18463	0.19120
969.22023	0.18431
968.25583	0.17648
967.29143	0.16862
966.32704	0.16138
965.36264	0.15497
964.39824	0.14934
963.43384	0.14452
962.46944	0.14072
961.50505	0.13819
960.54065	0.13710
959.57625	0.13765
958.61185	0.14010
957.64745	0.14488
956.68305	0.15274
955.71866	0.16436
954.75426	0.17997
953.78986	0.19918
952.82546	0.22089
951.86106	0.24270
950.89666	0.26065
949.93227	0.27060
948.96787	0.27067
948.00347	0.26230
947.03907	0.24870
946.07467	0.23302
945.11028	0.21745
944.14588	0.20305
943.18148	0.19006
942.21708	0.17833
941.25268	0.16759
940.28828	0.15763
939.32389	0.14829
938.35949	0.13930
937.39509	0.13054
936.43069	0.12207
935.46629	0.11393
934.50189	0.10613
933.53750	0.09863
932.57310	0.09140
931.60870	0.08448
930.64430	0.07797
929.67990	0.07202
928.71551	0.06676
927.75111	0.06267
926.78671	0.06086
925.82231	0.06239
924.85791	0.06619
923.89351	0.06919
922.92912	0.06959
921.96472	0.06825
921.00032	0.06685
920.03592	0.06674
919.07152	0.06805
918.10712	0.06933
917.14273	0.06897
916.17833	0.06614
915.21393	0.06026
914.24953	0.05149
913.28513	0.04147
912.32074	0.03237
911.35634	0.02521
910.39194	0.01987
909.42754	0.01572
908.46314	0.01232
907.49874	0.00968
906.53435	0.00783
905.56995	0.00662
904.60555	0.00587
903.64115	0.00559
902.67675	0.00583
901.71235	0.00694
900.74796	0.00876
899.78356	0.01117
898.81916	0.01423
897.85476	0.01785
896.89036	0.02173
895.92597	0.02565
894.96157	0.02941
893.99717	0.03283
893.03277	0.03593
892.06837	0.03877
891.10397	0.04128
890.13958	0.04375
889.17518	0.04675
888.21078	0.05047
887.24638	0.05505
886.28198	0.06083
885.31758	0.06809
884.35319	0.07692
883.38879	0.08727
882.42439	0.09921
881.45999	0.11303
880.49559	0.12905
879.53120	0.14737
878.56680	0.16788
877.60240	0.19050
876.63800	0.21528
875.67360	0.24238
874.70920	0.27179
873.74481	0.30332
872.78041	0.33683
871.81601	0.37192
870.85161	0.40793
869.88721	0.44436
868.92281	0.48055
867.95842	0.51526
866.99402	0.54710
866.02962	0.57513
865.06522	0.59894
864.10082	0.61894
863.13642	0.63604
862.17203	0.65101
861.20763	0.66446
860.24323	0.67702
859.27883	0.68931
858.31443	0.70170
857.35004	0.71347
856.38564	0.72282
855.42124	0.72818
854.45684	0.72887
853.49244	0.72472
852.52804	0.71579
851.56365	0.70232
850.59925	0.68537
849.63485	0.66730
848.67045	0.65042
847.70605	0.63611
846.74165	0.62597
845.77726	0.62216
844.81286	0.62618
843.84846	0.63822
842.88406	0.65744
841.91966	0.68208
840.95527	0.70972
839.99087	0.73780
839.02647	0.76402
838.06207	0.78686
837.09767	0.80527
836.13327	0.81825
835.16888	0.82489
834.20448	0.82497
833.24008	0.81903
832.27568	0.80754
831.31128	0.79074
830.34688	0.76937
829.38249	0.74465
828.41809	0.71750
827.45369	0.68877
826.48929	0.65949
825.52489	0.63029
824.56050	0.60154
823.59610	0.57357
822.63170	0.54672
821.66730	0.52117
820.70290	0.49696
819.73850	0.47397
818.77411	0.45201
817.80971	0.43101
816.84531	0.41092
815.88091	0.39173
814.91651	0.37337
813.95211	0.35564
812.98772	0.33858
812.02332	0.32238
811.05892	0.30690
810.09452	0.29188
809.13012	0.27736
808.16573	0.26334
807.20133	0.24976
806.23693	0.23665
805.27253	0.22404
804.30813	0.21201
803.34373	0.20061
802.37934	0.18984
801.41494	0.17956
800.45054	0.16979
799.48614	0.16063
798.52174	0.15207
797.55734	0.14401
796.59295	0.13634
795.62855	0.12901
794.66415	0.12212
793.69975	0.11588
792.73535	0.11043
791.77096	0.10561
790.80656	0.10110
789.84216	0.09666
788.87776	0.09219
787.91336	0.08779
786.94896	0.08373
785.98457	0.08041
785.02017	0.07786
784.05577	0.07577
783.09137	0.07381
782.12697	0.07188
781.16257	0.06991
780.19818	0.06803
779.23378	0.06669
778.26938	0.06644
777.30498	0.06759
776.34058	0.07013
775.37619	0.07409
774.41179	0.07979
773.44739	0.08727
772.48299	0.09607
771.51859	0.10536
770.55419	0.11415
769.58980	0.12127
768.62540	0.12543
767.66100	0.12574
766.69660	0.12229
765.73220	0.11604
764.76780	0.10826
763.80341	0.10000
762.83901	0.09183
761.87461	0.08418
760.91021	0.07754
759.94581	0.07235
758.98142	0.06903
758.01702	0.06837
757.05262	0.07162
756.08822	0.08041
755.12382	0.09653
754.15942	0.12218
753.19503	0.16046
752.23063	0.21416
751.26623	0.28197
750.30183	0.35456
749.33743	0.41765
748.37303	0.46447
747.40864	0.49941
746.44424	0.52446
745.47984	0.53665
744.51544	0.54419
743.55104	0.56606
742.58664	0.61021
741.62225	0.66572
740.65785	0.71877
739.69345	0.76554
738.72905	0.80097
737.76465	0.80773
736.80026	0.76947
735.83586	0.68895
734.87146	0.58606
733.90706	0.48307
732.94266	0.39502
731.97826	0.32928
731.01387	0.28744
730.04947	0.26735
729.08507	0.26563
728.12067	0.27902
727.15627	0.30485
726.19187	0.34190
725.22748	0.39016
724.26308	0.44998
723.29868	0.52211
722.33428	0.60716
721.36988	0.70767
720.40549	0.82959
719.44109	0.97380
718.47669	1.13437
717.51229	1.30271
716.54789	1.46092
715.58349	1.59008
714.61910	1.68764
713.65470	1.76129
712.69030	1.81017
711.72590	1.82380
710.76150	1.79384
709.79710	1.72372
708.83271	1.63051
707.86831	1.53265
706.90391	1.44202
705.93951	1.36788
704.97511	1.32376
704.01072	1.32591
703.04632	1.38576
702.08192	1.50197
701.11752	1.65611
700.15312	1.81612
699.18872	1.94278
698.22433	2.00000
697.25993	1.96917
696.29553	1.86209
695.33113	1.71270
694.36673	1.55384
693.40233	1.40707
692.43794	1.28089
691.47354	1.17555
690.50914	1.08770
689.54474	1.01352
688.58034	0.95014
687.61595	0.89544
686.65155	0.84822
685.68715	0.80729
684.72275	0.77161
683.75835	0.74056
682.79395	0.71373
681.82956	0.69058
680.86516	0.67073
679.90076	0.65396
678.93636	0.63953
677.97196	0.62655
677.00756	0.61434
676.04317	0.60276
675.07877	0.59196
674.11437	0.58173
673.14997	0.57165
672.18557	0.56156
671.22118	0.55240
670.25678	0.54626
669.29238	0.54319
668.32798	0.53148
667.36358	0.50491
666.39918	0.48949
665.43479	0.47872
664.47039	0.46692
663.50599	0.45483
662.54159	0.44315
661.57719	0.43233
660.61279	0.42289
659.64840	0.41453
658.68400	0.40655
657.71960	0.39883
656.75520	0.39168
655.79080	0.38531
654.82641	0.37962
653.86201	0.37428
652.89761	0.36920
651.93321	0.36438
650.96881	0.35978
650.00441	0.35542
649.04002	0.35122
648.07562	0.34683
647.11122	0.34229
646.14682	0.33808
645.18242	0.33426
644.21802	0.33062
643.25363	0.32699
642.28923	0.32343
641.32483	0.32018
640.36043	0.31734
639.39603	0.31460
638.43163	0.31149
637.46724	0.30825
636.50284	0.30517
635.53844	0.30214
634.57404	0.29899
633.60964	0.29584
632.64525	0.29276
631.68085	0.28959
630.71645	0.28633
629.75205	0.28307
628.78765	0.27991
627.82325	0.27681
626.85886	0.27367
625.89446	0.27056
624.93006	0.26755
623.96566	0.26475
623.00126	0.26242
622.03686	0.26095
621.07247	0.26021
620.10807	0.25952
619.14367	0.25742
618.17927	0.25216
617.21487	0.24499
616.25048	0.23955
615.28608	0.23669
614.32168	0.23452
613.35728	0.23167
612.39288	0.22819
611.42848	0.22480
610.46409	0.22165
609.49969	0.21839
608.53529	0.21509
607.57089	0.21181
606.60649	0.20838
605.64209	0.20511
604.67770	0.20215
603.71330	0.19896
602.74890	0.19551
601.78450	0.19237
600.82010	0.18939
599.85571	0.18621
598.89131	0.18290
597.92691	0.17956
596.96251	0.17616
595.99811	0.17275
595.03371	0.16942
594.06932	0.16601
593.10492	0.16263
592.14052	0.15938
591.17612	0.15581
590.21172	0.15195
589.24732	0.14822
588.28293	0.14463
587.31853	0.14093
586.35413	0.13695
585.38973	0.13277
584.42533	0.12879
583.46094	0.12502
582.49654	0.12115
581.53214	0.11732
580.56774	0.11341
579.60334	0.10906
578.63894	0.10457
577.67455	0.10056
576.71015	0.09707
575.74575	0.09338
574.78135	0.08923
573.81695	0.08523
572.85255	0.08150
571.88816	0.07754
570.92376	0.07345
569.95936	0.06957
568.99496	0.06558
568.03056	0.06120
567.06617	0.05674
566.10177	0.05266
565.13737	0.04892
564.17297	0.04505
563.20857	0.04090
562.24417	0.03682
561.27978	0.03287
560.31538	0.02883
559.35098	0.02499
558.38658	0.02173
557.42218	0.01880
556.45778	0.01590
555.49339	0.01325
554.52899	0.01126
553.56459	0.01013
552.60019	0.00977
551.63579	0.01000
550.67140	0.01041
549.70700	0.01028
548.74260	0.00925
547.77820	0.00769
546.81380	0.00626
545.84940	0.00559
544.88501	0.00512
543.92061	0.00565
542.95621	0.00700
541.99181	0.00960
541.02741	0.01388
540.06301	0.01971
539.09862	0.02703
538.13422	0.03590
537.16982	0.04690
536.20542	0.06097
535.24102	0.07833
534.27663	0.09872
533.31223	0.12265
532.34783	0.15139
531.38343	0.18636
530.41903	0.22887
529.45463	0.28081
528.49024	0.34478
527.52584	0.42241
526.56144	0.51547
525.59704	0.62121
524.63264	0.72714
523.66824	0.82465
522.70385	0.91544
521.73945	1.00727
520.77505	1.11158
519.81065	1.23352
518.84625	1.36194
517.88185	1.47816
516.91746	1.56936
515.95306	1.62806
514.98866	1.66021
514.02426	1.68285
513.05986	1.70734
512.09547	1.73477
511.13107	1.76155
510.16667	1.78430
509.20227	1.79456
508.23787	1.77652
507.27347	1.71747
506.30908	1.62360
505.34468	1.51691
504.38028	1.41334
503.41588	1.31810
502.45148	1.22815
501.48708	1.14205
500.52269	1.06258
499.55829	0.98890
498.59389	0.92099
497.62949	0.86072
496.66509	0.80883
495.70070	0.76536
494.73630	0.73027
493.77190	0.70354
492.80750	0.68366
491.84310	0.66705
490.87870	0.64994
489.91431	0.63086
488.94991	0.61059
487.98551	0.59075
487.02111	0.57273
486.05671	0.55762
485.09231	0.54627
484.12792	0.53842
483.16352	0.53350
482.19912	0.53090
481.23472	0.52929
480.27032	0.52765
479.30593	0.52634
478.34153	0.52568
477.37713	0.52469
476.41273	0.52233
475.44833	0.51861
474.48393	0.51412
473.51954	0.50827
472.55514	0.49915
471.59074	0.48667
470.62634	0.47245
469.66194	0.45711
468.69754	0.44082
467.73315	0.42360
466.76875	0.40545
465.80435	0.38697
464.83995	0.36898
463.87555	0.35200
462.91116	0.33581
461.94676	0.31973
460.98236	0.30374
460.01796	0.28956
459.05356	0.27842
458.08916	0.26787
457.12477	0.25580
456.16037	0.24491
455.19597	0.23659
454.23157	0.23061
453.26717	0.22744
452.30277	0.22747
451.33838	0.23139
450.37398	0.23911
449.40958	0.24891
448.44518	0.25836
447.48078	0.26539
446.51639	0.26917
445.55199	0.27049
444.58759	0.27102
443.62319	0.27133
442.65879	0.27075
441.69439	0.26868
440.73000	0.26618
439.76560	0.26617
438.80120	0.27050
437.83680	0.27922
436.87240	0.29165
435.90800	0.30540
434.94361	0.31711
433.97921	0.32530
433.01481	0.32946
432.05041	0.32895
431.08601	0.32354
430.12162	0.31429
429.15722	0.30347
428.19282	0.29220
427.22842	0.27941
426.26402	0.26371
425.29962	0.24632
424.33523	0.23050
423.37083	0.21624
422.40643	0.20197
421.44203	0.18989
420.47763	0.18157
419.51323	0.17377
418.54884	0.16144
417.58444	0.14731
416.62004	0.13686
415.65564	0.12983
414.69124	0.12312
413.72685	0.11578
412.76245	0.10900
411.79805	0.10291
410.83365	0.09795
409.86925	0.09415
408.90485	0.08960
407.94046	0.08412
406.97606	0.07984
406.01166	0.07723
405.04726	0.07452
404.08286	0.07022
403.11846	0.06522
402.15407	0.06129
401.18967	0.05872
400.22527	0.05681
399.26087	0.05575
398.29647	0.05594
397.33207	0.05480
396.36768	0.05048
395.40328	0.04623
394.43888	0.04362
393.47448	0.04114
392.51008	0.03765
391.54569	0.03390
390.58129	0.03117
389.61689	0.02914
388.65249	0.02642
387.68809	0.02324
386.72369	0.02075
385.75930	0.01858
384.79490	0.01576
383.83050	0.01243
382.86610	0.00877
381.90170	0.00559
380.93730	0.00213
379.97291	0.00104
379.00851	0.00047
378.04411	0.00000
377.07971	0.00070
376.11531	0.00334
375.15092	0.00687
374.18652	0.00870
373.22212	0.00841
372.25772	0.00747
371.29332	0.00691
370.32892	0.00669
369.36453	0.00559
